1631013704374930;-30.79608
1631013704390560;-37.30038
1631013704406180;-43.72504
1631013704421810;-54.42993
1631013704437430;-71.54602
1631013704453060;-94.07913
1631013704468690;-118.5402
1631013704484310;-140.5344
1631013704499940;-156.5022
1631013704515560;-164.7612
1631013704531190;-165.636
1631013704546810;-160.8772
1631013704562440;-152.693
1631013704578070;-142.8486
1631013704593690;-132.314
1631013704609320;-121.4031
1631013704624940;-110.2762
1631013704640570;-99.49316
1631013704656190;-90.1521
1631013704671820;-83.57916
1631013704687450;-80.79333
1631013704703070;-81.90057
1631013704718700;-85.92554
1631013704734320;-90.97577
1631013704749950;-94.69781
1631013704765570;-94.86798
1631013704781200;-89.93451
1631013704796830;-79.38965
1631013704812450;-63.90265
1631013704828080;-45.33203
1631013704843700;-26.33826
1631013704859330;-9.793701
1631013704874950;1.962952
1631013704890580;7.852661
1631013704906210;8.378601
1631013704921830;5.363708
1631013704937460;1.136292
1631013704953080;-2.384583
1631013704968710;-4.295471
1631013704984330;-4.6203
1631013704999960;-3.799438
1631013705015590;-2.172119
1631013705031210;0.1590576
1631013705046840;3.027771
1631013705062460;5.771362
1631013705078090;7.132751
1631013705093710;5.812805
1631013705109340;1.331421
1631013705124970;-5.286865
1631013705140590;-11.68176
1631013705156220;-15.05072
1631013705171840;-13.33142
1631013705187470;-6.033447
1631013705203090;5.714966
1631013705218720;19.59937
1631013705234350;32.92761
1631013705249970;43.25208
1631013705265600;48.77954
1631013705281220;48.75269
1631013705296850;43.67566
1631013705312470;35.27209
1631013705328100;25.8537
1631013705343730;17.49609
1631013705359350;11.28564
1631013705374980;7.232605
1631013705390600;4.76178
1631013705406230;3.366028
1631013705421850;2.74823
1631013705437480;2.34613
1631013705453110;0.6361694
1631013705468730;-5.065796
1631013705484360;-17.72693
1631013705499980;-39.04865
1631013705515610;-68.19171
1631013705531230;-101.6304
1631013705546860;-134.3356
1631013705562490;-161.636
1631013705578110;-180.7625
1631013705593740;-191.2822
1631013705609360;-194.4323
1631013705624990;-191.9535
1631013705640610;-185.2249
1631013705656240;-175.0407
1631013705671870;-161.8611
1631013705687490;-146.1687
1631013705703120;-128.5622
1631013705718740;-109.808
1631013705734370;-90.67639
1631013705750000;-71.90704
1631013705765620;-54.23993
1631013705781250;-38.40485
1631013705796870;-25.08185
1631013705812500;-14.8064
1631013705828120;-7.948059
1631013705843750;-4.641235
1631013705859380;-4.806763
1631013705875000;-8.129822
1631013705890630;-13.90558
1631013705906250;-21.03967
1631013705921880;-28.1015
1631013705937500;-33.58478
1631013705953130;-36.30817
1631013705968760;-35.83582
1631013705984380;-32.64844
1631013706000010;-28.00488
1631013706015630;-23.55585
1631013706031260;-20.75958
1631013706046880;-20.45007
1631013706062510;-22.62329
1631013706078140;-26.57721
1631013706093760;-31.2627
1631013706109390;-35.78876
1631013706125010;-39.75616
1631013706140640;-43.48767
1631013706156260;-47.95856
1631013706171890;-54.49731
1631013706187520;-64.34552
1631013706203140;-78.1131
1631013706218770;-95.31787
1631013706234390;-114.1913
1631013706250020;-131.9068
1631013706265640;-145.2934
1631013706281270;-151.7055
1631013706296900;-149.8273
1631013706312520;-139.9992
1631013706328150;-123.9825
1631013706343770;-104.2679
1631013706359400;-83.21964
1631013706375020;-62.4566
1631013706390650;-42.72159
1631013706406280;-24.1442
1631013706421900;-6.693451
1631013706437530;9.509491
1631013706453150;24.20729
1631013706468780;37.31042
1631013706484400;49.18491
1631013706500030;60.71234
1631013706515660;73.01955
1631013706531280;86.95377
1631013706546910;102.6254
1631013706562530;119.25
1631013706578160;135.4366
1631013706593780;149.7378
1631013706609410;161.2119
1631013706625040;169.6879
1631013706640660;175.6032
1631013706656290;179.522
1631013706671910;181.6459
1631013706687540;181.6127
1631013706703160;178.6581
1631013706718790;172.0974
1631013706734420;161.7498
1631013706750040;148.1832
1631013706765670;132.5078
1631013706781290;115.8747
1631013706796920;98.91267
1631013706812540;81.37846
1631013706828170;62.30669
1631013706843800;40.4136
1631013706859420;14.71239
1631013706875050;-15.09888
1631013706890670;-48.59412
1631013706906300;-84.70515
1631013706921920;-121.8403
1631013706937550;-157.8692
1631013706953180;-190.1527
1631013706968800;-215.8501
1631013706984430;-232.5986
1631013707000050;-239.3157
1631013707015680;-236.7234
1631013707031300;-227.0824
1631013707046930;-213.227
1631013707062560;-197.3575
1631013707078180;-180.1427
1631013707093810;-160.7887
1631013707109430;-137.9548
1631013707125060;-110.9892
1631013707140680;-80.71832
1631013707156310;-49.35056
1631013707171940;-19.59033
1631013707187560;6.477448
1631013707203190;28.05536
1631013707218810;45.63187
1631013707234440;60.26675
1631013707250060;72.71252
1631013707265690;82.93167
1631013707281320;90.17563
1631013707296940;93.62445
1631013707312570;93.12045
1631013707328190;89.64447
1631013707343820;85.08392
1631013707359440;81.66547
1631013707375070;81.07648
1631013707390700;83.87433
1631013707406320;89.39667
1631013707421950;96.12762
1631013707437570;102.4198
1631013707453200;107.1183
1631013707468820;109.9087
1631013707484450;111.264
1631013707500080;112.0214
1631013707515700;112.8823
1631013707531330;114.0181
1631013707546950;114.9744
1631013707562580;114.9191
1631013707578200;113.0805
1631013707593830;109.1375
1631013707609460;103.384
1631013707625080;96.54492
1631013707640710;89.40076
1631013707656330;82.4201
1631013707671960;75.58813
1631013707687580;68.54065
1631013707703210;60.78589
1631013707718840;52.0799
1631013707734460;42.55896
1631013707750090;32.72748
1631013707765710;23.28851
1631013707781340;14.89203
1631013707796960;7.953369
1631013707812590;2.500916
1631013707828220;-1.819763
1631013707843840;-5.665527
1631013707859470;-9.792603
1631013707875090;-14.88855
1631013707890720;-21.41205
1631013707906350;-29.51929
1631013707921970;-39.03528
1631013707937600;-49.42194
1631013707953220;-59.72119
1631013707968850;-68.5976
1631013707984470;-74.44635
1631013708000100;-75.75238
1631013708015730;-71.50562
1631013708031350;-61.54535
1631013708046980;-46.67981
1631013708062600;-28.49664
1631013708078230;-8.894409
1631013708093850;10.42133
1631013708109480;28.26978
1631013708125110;44.08264
1631013708140730;57.76392
1631013708156360;69.42542
1631013708171980;79.17871
1631013708187610;87.02844
1631013708203230;92.91992
1631013708218860;96.86377
1631013708234490;99.03638
1631013708250110;99.84509
1631013708265740;99.80859
1631013708281360;99.44568
1631013708296990;99.05042
1631013708312610;98.70227
1631013708328240;98.29224
1631013708343870;97.69592
1631013708359490;96.87329
1631013708375120;95.90588
1631013708390740;94.87659
1631013708406370;93.71411
1631013708421990;92.11267
1631013708437620;89.5802
1631013708453250;85.68176
1631013708468870;80.30176
1631013708484500;73.80945
1631013708500120;66.97937
1631013708515750;60.68787
1631013708531370;55.56213
1631013708547000;51.63806
1631013708562630;48.36462
1631013708578250;44.81836
1631013708593880;40.1582
1631013708609500;34.00256
1631013708625130;26.57446
1631013708640750;18.57031
1631013708656380;10.73987
1631013708672010;3.554321
1631013708687630;-3.066772
1631013708703260;-9.656006
1631013708718880;-16.97388
1631013708734510;-25.7168
1631013708750130;-36.24768
1631013708765760;-48.50439
1631013708781390;-61.86133
1631013708797010;-75.27625
1631013708812640;-87.33203
1631013708828260;-96.55298
1631013708843890;-101.675
1631013708859510;-101.9956
1631013708875140;-97.60657
1631013708890770;-89.37256
1631013708906390;-78.77332
1631013708922020;-67.44238
1631013708937640;-56.81628
1631013708953270;-47.73718
1631013708968890;-40.35522
1631013708984520;-34.21436
1631013709000150;-28.53467
1631013709015770;-22.5741
1631013709031400;-15.91614
1631013709047020;-8.582886
1631013709062650;-0.920166
1631013709078270;6.616699
1631013709093900;13.7218
1631013709109530;20.31055
1631013709125150;26.48938
1631013709140780;32.43127
1631013709156400;38.22278
1631013709172030;43.88171
1631013709187650;49.38147
1631013709203280;54.74524
1631013709218910;59.99573
1631013709234530;65.1084
1631013709250160;69.91345
1631013709265780;74.0697
1631013709281410;77.16577
1631013709297030;78.84583
1631013709312660;78.96545
1631013709328290;77.57813
1631013709343910;74.9425
1631013709359540;71.39563
1631013709375160;67.30444
1631013709390790;62.99121
1631013709406410;58.72229
1631013709422040;54.68591
1631013709437670;50.91797
1631013709453290;47.29736
1631013709468920;43.55444
1631013709484540;39.30371
1631013709500170;34.13611
1631013709515790;27.7323
1631013709531420;19.93152
1631013709547050;10.83289
1631013709562670;0.848999
1631013709578300;-9.199097
1631013709593920;-18.22351
1631013709609550;-25.00854
1631013709625170;-28.56848
1631013709640800;-28.40515
1631013709656430;-24.68134
1631013709672050;-18.16998
1631013709687680;-9.973633
1631013709703300;-1.208984
1631013709718930;7.271484
1631013709734550;14.9978
1631013709750180;21.82538
1631013709765810;27.73553
1631013709781430;32.64758
1631013709797060;36.37292
1631013709812680;38.62115
1631013709828310;39.23645
1631013709843930;38.33234
1631013709859560;36.32031
1631013709875190;33.83344
1631013709890810;31.47235
1631013709906440;29.60034
1631013709922060;28.20441
1631013709937690;26.97339
1631013709953310;25.47577
1631013709968940;23.43762
1631013709984570;20.85468
1631013710000190;18.03564
1631013710015820;15.41132
1631013710031440;13.34216
1631013710047070;11.89484
1631013710062690;10.7428
1631013710078320;9.329834
1631013710093950;7.040588
1631013710109570;3.503662
1631013710125200;-1.225464
1631013710140820;-6.64624
1631013710156450;-12.03723
1631013710172080;-16.72589
1631013710187700;-20.35132
1631013710203330;-22.98889
1631013710218950;-25.00659
1631013710234580;-26.86029
1631013710250200;-28.89899
1631013710265830;-31.25317
1631013710281460;-33.90399
1631013710297080;-36.68304
1631013710312710;-39.32513
1631013710328330;-41.38257
1631013710343960;-42.18896
1631013710359580;-40.89063
1631013710375210;-36.6604
1631013710390840;-28.95575
1631013710406460;-17.71075
1631013710422090;-3.445984
1631013710437710;12.98871
1631013710453340;30.86249
1631013710468960;49.99878
1631013710484590;70.81952
1631013710500220;93.92761
1631013710515840;119.2439
1631013710531470;145.2855
1631013710547090;169.0096
1631013710562720;186.4473
1631013710578340;193.9852
1631013710593970;189.5922
1631013710609600;173.4605
1631013710625220;147.7556
1631013710640850;115.7238
1631013710656470;80.59393
1631013710672100;44.97882
1631013710687720;10.80969
1631013710703350;-20.38623
1631013710718980;-47.22083
1631013710734600;-68.4967
1631013710750230;-83.61761
1631013710765850;-92.88712
1631013710781480;-97.50977
1631013710797100;-99.14417
1631013710812730;-99.11737
1631013710828360;-97.84479
1631013710843980;-94.72476
1631013710859610;-88.69922
1631013710875230;-79.23352
1631013710890860;-67.17059
1631013710906480;-54.88245
1631013710922110;-45.64722
1631013710937740;-42.35086
1631013710953360;-46.16327
1631013710968990;-55.92316
1631013710984610;-68.52304
1631013711000240;-80.14154
1631013711015860;-87.70514
1631013711031490;-89.81128
1631013711047120;-86.70563
1631013711062740;-79.45502
1631013711078370;-68.87131
1631013711093990;-54.79364
1631013711109620;-36.23413
1631013711125240;-12.09409
1631013711140870;17.91794
1631013711156500;52.7733
1631013711172120;90.35036
1631013711187750;128.1882
1631013711203370;164.4295
1631013711219000;198.2644
1631013711234620;229.783
1631013711250250;259.235
1631013711265880;286.2795
1631013711281500;309.4871
1631013711297130;326.5088
1631013711312750;334.7263
1631013711328380;332.0456
1631013711344000;317.5325
1631013711359630;291.5789
1631013711375260;255.6813
1631013711390880;212.0585
1631013711406510;163.2919
1631013711422130;112.1408
1631013711437760;61.38378
1631013711453380;13.68596
1631013711469010;-28.6837
1631013711484640;-64.0903
1631013711500260;-91.73702
1631013711515890;-111.5828
1631013711531510;-124.0553
1631013711547140;-129.7328
1631013711562760;-129.2007
1631013711578390;-123.1128
1631013711594020;-112.3775
1631013711609640;-98.35388
1631013711625270;-82.74359
1631013711640890;-67.33417
1631013711656520;-53.70486
1631013711672140;-43.01913
1631013711687770;-36.0032
1631013711703400;-33.06183
1631013711719020;-34.2659
1631013711734650;-39.38647
1631013711750270;-47.86194
1631013711765900;-58.85382
1631013711781520;-71.46829
1631013711797150;-84.91934
1631013711812780;-98.59644
1631013711828400;-111.9492
1631013711844030;-124.2368
1631013711859650;-134.3581
1631013711875280;-141.0203
1631013711890900;-143.1008
1631013711906530;-140.0561
1631013711922160;-132.2409
1631013711937780;-120.8669
1631013711953410;-107.6205
1631013711969030;-94.19116
1631013711984660;-81.81287
1631013712000280;-71.06714
1631013712015910;-61.96918
1631013712031540;-54.22913
1631013712047160;-47.57629
1631013712062790;-41.91791
1631013712078410;-37.3916
1631013712094040;-34.17145
1631013712109660;-32.28265
1631013712125290;-31.47961
1631013712140920;-31.27551
1631013712156540;-31.15625
1631013712172170;-30.79761
1631013712187790;-30.19745
1631013712203420;-29.57678
1631013712219040;-29.18573
1631013712234670;-29.03931
1631013712250300;-28.94409
1631013712265920;-28.59576
1631013712281550;-27.87787
1631013712297170;-27.0567
1631013712312800;-26.68396
1631013712328420;-27.36292
1631013712344050;-29.41766
1631013712359680;-32.68805
1631013712375300;-36.53149
1631013712390930;-40.17719
1631013712406550;-43.05682
1631013712422180;-45.09167
1631013712437800;-46.7229
1631013712453430;-48.63367
1631013712469060;-51.42609
1631013712484680;-55.28888
1631013712500310;-59.9624
1631013712515930;-64.89465
1631013712531560;-69.52802
1631013712547180;-73.55627
1631013712562810;-77.01099
1631013712578440;-80.21021
1631013712594060;-83.58691
1631013712609690;-87.47864
1631013712625310;-91.97986
1631013712640940;-96.84485
1631013712656560;-101.4373
1631013712672190;-104.7803
1631013712687820;-105.6619
1631013712703440;-102.9462
1631013712719070;-95.91003
1631013712734690;-84.5459
1631013712750320;-69.68091
1631013712765950;-52.77649
1631013712781570;-35.48718
1631013712797200;-19.23535
1631013712812820;-4.853394
1631013712828450;7.479492
1631013712844070;18.0293
1631013712859700;27.1709
1631013712875330;35.09204
1631013712890950;41.66846
1631013712906580;46.5863
1631013712922200;49.55884
1631013712937830;50.53149
1631013712953450;49.79846
1631013712969080;47.8999
1631013712984710;45.41614
1631013713000330;42.82312
1631013713015960;40.40295
1631013713031580;38.25232
1631013713047210;36.38025
1631013713062830;34.79919
1631013713078460;33.48376
1631013713094090;32.36072
1631013713109710;31.19531
1631013713125340;29.65759
1631013713140960;27.42419
1631013713156590;24.35718
1631013713172210;20.59961
1631013713187840;16.57568
1631013713203470;12.77454
1631013713219090;9.541992
1631013713234720;6.922119
1631013713250340;4.628418
1631013713265970;2.175171
1631013713281590;-0.8592529
1631013713297220;-4.663574
1631013713312850;-9.102783
1631013713328470;-13.78137
1631013713344100;-18.26746
1631013713359720;-22.26843
1631013713375350;-25.75854
1631013713390970;-28.95569
1631013713406600;-32.21057
1631013713422230;-35.8136
1631013713437850;-39.87573
1631013713453480;-44.2666
1631013713469100;-48.69238
1631013713484730;-52.86829
1631013713500350;-56.66028
1631013713515980;-60.07703
1631013713531610;-63.32874
1631013713547230;-66.71167
1631013713562860;-70.61511
1631013713578480;-75.4989
1631013713594110;-81.74756
1631013713609730;-89.41077
1631013713625360;-97.92993
1631013713640990;-105.9281
1631013713656610;-111.4058
1631013713672240;-112.3047
1631013713687860;-107.155
1631013713703490;-95.69958
1631013713719110;-79.03723
1631013713734740;-59.26196
1631013713750370;-38.74915
1631013713765990;-19.42493
1631013713781620;-2.332275
1631013713797240;12.39673
1631013713812870;25.12634
1631013713828490;36.30505
1631013713844120;46.07153
1631013713859750;54.15527
1631013713875370;60.11145
1631013713891000;63.61414
1631013713906620;64.7417
1631013713922250;64.01538
1631013713937870;62.23206
1631013713953500;60.09644
1631013713969130;58.04614
1631013713984750;56.17529
1631013714000380;54.37793
1631013714016000;52.57349
1631013714031630;50.79724
1631013714047250;49.21057
1631013714062880;47.92334
1631013714078510;46.88147
1631013714094130;45.81506
1631013714109760;44.36353
1631013714125380;42.23303
1631013714141010;39.33972
1631013714156630;35.83459
1631013714172260;32.01807
1631013714187890;28.19495
1631013714203510;24.53271
1631013714219140;21.06519
1631013714234760;17.7002
1631013714250390;14.37695
1631013714266010;11.08142
1631013714281640;7.808105
1631013714297270;4.546021
1631013714312890;1.166626
1631013714328520;-2.529663
1631013714344140;-6.688843
1631013714359770;-11.26416
1631013714375390;-15.96716
1631013714391020;-20.39722
1631013714406650;-24.2594
1631013714422270;-27.56824
1631013714437900;-30.64636
1631013714453520;-33.97974
1631013714469150;-37.90137
1631013714484770;-42.40295
1631013714500400;-47.12
1631013714516030;-51.5564
1631013714531650;-55.38416
1631013714547280;-58.60083
1631013714562900;-61.58545
1631013714578530;-64.89844
1631013714594150;-69.09888
1631013714609780;-74.61682
1631013714625410;-81.61218
1631013714641030;-89.91687
1631013714656660;-98.85938
1631013714672280;-107.1958
1631013714687910;-113.1232
1631013714703530;-114.6003
1631013714719160;-109.9386
1631013714734790;-98.39929
1631013714750410;-80.62695
1631013714766040;-58.54907
1631013714781660;-34.86047
1631013714797290;-12.18799
1631013714812910;7.606323
1631013714828540;23.77258
1631013714844170;36.55505
1631013714859790;46.672
1631013714875420;54.78711
1631013714891040;61.19336
1631013714906670;65.80579
1631013714922290;68.43616
1631013714937920;69.09851
1631013714953550;68.14209
1631013714969170;66.13074
1631013714984800;63.63525
1631013715000420;60.98499
1631013715016050;58.29907
1631013715031680;55.5907
1631013715047300;52.94958
1631013715062930;50.54932
1631013715078550;48.57422
1631013715094180;47.10229
1631013715109800;45.94293
1631013715125430;44.77588
1631013715141060;43.21368
1631013715156680;40.9801
1631013715172310;37.95154
1631013715187930;34.08911
1631013715203560;29.42828
1631013715219180;23.97815
1631013715234810;17.83313
1631013715250440;11.1601
1631013715266060;4.279785
1631013715281690;-2.390442
1631013715297310;-8.458679
1631013715312940;-13.70215
1631013715328560;-18.18854
1631013715344190;-22.18719
1631013715359820;-26.13837
1631013715375440;-30.31793
1631013715391070;-34.76013
1631013715406690;-39.17395
1631013715422320;-43.13867
1631013715437940;-46.38208
1631013715453570;-48.98083
1631013715469200;-51.47906
1631013715484820;-54.62354
1631013715500450;-59.19623
1631013715516070;-65.68781
1631013715531700;-74.20337
1631013715547320;-84.34595
1631013715562950;-95.15582
1631013715578580;-105.077
1631013715594200;-111.9848
1631013715609830;-113.5848
1631013715625450;-107.9875
1631013715641080;-94.3573
1631013715656700;-73.38153
1631013715672330;-47.211
1631013715687960;-18.91602
1631013715703580;8.37262
1631013715719210;32.15277
1631013715734830;51.00812
1631013715750460;64.52795
1631013715766080;72.99121
1631013715781710;77.05737
1631013715797340;77.47784
1631013715812960;75.03546
1631013715828590;70.54077
1631013715844210;64.84283
1631013715859840;58.76038
1631013715875460;53.05164
1631013715891090;48.23334
1631013715906720;44.50073
1631013715922340;41.64478
1631013715937970;39.22614
1631013715953590;36.84119
1631013715969220;34.47052
1631013715984840;32.68268
1631013716000470;32.55499
1631013716016100;35.22839
1631013716031720;41.27551
1631013716047350;50.15546
1631013716062970;60.04993
1631013716078600;68.22345
1631013716094220;71.92352
1631013716109850;69.42499
1631013716125480;60.70587
1631013716141100;47.47028
1631013716156730;32.54193
1631013716172350;18.72968
1631013716187980;7.877014
1631013716203600;0.3986816
1631013716219230;-4.578979
1631013716234860;-8.512878
1631013716250480;-12.6792
1631013716266110;-17.62628
1631013716281730;-23.13922
1631013716297360;-28.58728
1631013716312980;-33.45862
1631013716328610;-37.65918
1631013716344240;-41.59424
1631013716359860;-45.92413
1631013716375490;-51.31207
1631013716391110;-58.21619
1631013716406740;-66.90277
1631013716422360;-77.4696
1631013716437990;-89.77246
1631013716453620;-103.269
1631013716469240;-116.7649
1631013716484870;-128.3615
1631013716500490;-135.7092
1631013716516120;-136.6827
1631013716531740;-130.1072
1631013716547370;-116.2963
1631013716563000;-97.08905
1631013716578620;-75.22058
1631013716594250;-53.48053
1631013716609870;-33.91376
1631013716625500;-17.42505
1631013716641120;-3.9422
1631013716656750;7.161133
1631013716672380;16.55786
1631013716688000;24.68866
1631013716703630;31.68018
1631013716719250;37.50525
1631013716734880;42.15289
1631013716750500;45.71906
1631013716766130;48.42236
1631013716781760;50.56097
1631013716797380;52.4118
1631013716813010;54.1897
1631013716828630;56.05792
1631013716844260;58.06079
1631013716859880;60.21564
1631013716875510;62.505
1631013716891140;64.90063
1631013716906760;67.27655
1631013716922390;69.38342
1631013716938010;70.7887
1631013716953640;70.92456
1631013716969260;69.26675
1631013716984890;65.51505
1631013717000520;59.78195
1631013717016140;52.5899
1631013717031770;44.70901
1631013717047390;36.93106
1631013717063020;29.77295
1631013717078640;23.39185
1631013717094270;17.57315
1631013717109900;11.86551
1631013717125520;5.789246
1631013717141150;-0.9979248
1631013717156770;-8.578369
1631013717172400;-16.73627
1631013717188020;-25.00681
1631013717203650;-32.86252
1631013717219280;-39.91891
1631013717234900;-46.17346
1631013717250530;-52.08411
1631013717266150;-58.51953
1631013717281780;-66.4957
1631013717297410;-76.78024
1631013717313030;-89.46176
1631013717328660;-103.5912
1631013717344280;-117.1691
1631013717359910;-127.4165
1631013717375530;-131.4077
1631013717391160;-126.8423
1631013717406790;-112.7875
1631013717422410;-90.05716
1631013717438040;-61.08148
1631013717453660;-29.25647
1631013717469290;1.937622
1631013717484910;29.81723
1631013717500540;52.96738
1631013717516170;71.17239
1631013717531790;85.00067
1631013717547420;95.28867
1631013717563040;102.649
1631013717578670;107.4709
1631013717594290;110.0081
1631013717609920;110.5765
1631013717625550;109.7133
1631013717641170;108.0332
1631013717656800;106.0498
1631013717672420;103.9857
1631013717688050;101.7882
1631013717703670;99.22911
1631013717719300;96.12921
1631013717734930;92.47984
1631013717750550;88.42567
1631013717766180;84.16217
1631013717781800;79.78081
1631013717797430;75.18677
1631013717813050;70.17085
1631013717828680;64.5977
1631013717844310;58.55444
1631013717859930;52.41963
1631013717875560;46.74854
1631013717891180;41.96094
1631013717906810;38.10468
1631013717922430;34.73212
1631013717938060;31.03522
1631013717953690;26.22865
1631013717969310;19.92819
1631013717984940;12.36897
1631013718000560;4.288422
1631013718016190;-3.428909
1631013718031810;-10.25108
1631013718047440;-16.28496
1631013718063070;-22.32211
1631013718078690;-29.50697
1631013718094320;-38.85767
1631013718109940;-50.77567
1631013718125570;-64.64891
1631013718141190;-78.82306
1631013718156820;-90.81059
1631013718172450;-97.82584
1631013718188070;-97.46997
1631013718203700;-88.37755
1631013718219320;-70.67267
1631013718234950;-46.04395
1631013718250570;-17.38615
1631013718266200;11.90598
1631013718281830;38.71643
1631013718297450;60.83179
1631013718313080;77.20534
1631013718328700;87.81041
1631013718344330;93.21129
1631013718359950;94.10535
1631013718375580;91.10252
1631013718391210;84.69878
1631013718406830;75.48315
1631013718422460;64.37927
1631013718438080;52.60185
1631013718453710;41.45692
1631013718469330;31.97964
1631013718484960;24.64763
1631013718500590;19.30424
1631013718516210;15.40775
1631013718531840;12.32213
1631013718547460;9.638184
1631013718563090;7.319412
1631013718578710;5.561188
1631013718594340;4.597427
1631013718609970;4.452591
1631013718625590;4.848145
1631013718641220;5.213928
1631013718656840;4.879333
1631013718672470;3.293121
1631013718688090;0.178833
1631013718703720;-4.319061
1631013718719350;-9.739929
1631013718734970;-15.45483
1631013718750600;-20.88348
1631013718766220;-25.68752
1631013718781850;-29.87057
1631013718797470;-33.82426
1631013718813100;-38.15125
1631013718828730;-43.60274
1631013718844350;-50.82939
1631013718859980;-60.14519
1631013718875600;-71.22722
1631013718891230;-82.89259
1631013718906850;-93.1591
1631013718922480;-99.58458
1631013718938110;-99.9866
1631013718953730;-93.07573
1631013718969360;-78.98511
1631013718984980;-59.22873
1631013719000610;-36.26706
1631013719016230;-12.761
1631013719031860;9.093414
1631013719047490;27.90298
1631013719063110;43.09097
1631013719078740;54.58704
1631013719094360;62.56717
1631013719109990;67.24554
1631013719125610;68.862
1631013719141240;67.79715
1631013719156870;64.58466
1631013719172490;59.98923
1631013719188120;54.85077
1631013719203740;49.94391
1631013719219370;45.81085
1631013719234990;42.63519
1631013719250620;40.20828
1631013719266250;38.0661
1631013719281870;35.71448
1631013719297500;32.84409
1631013719313120;29.49286
1631013719328750;25.99902
1631013719344370;22.81708
1631013719360000;20.18329
1631013719375630;17.93332
1631013719391250;15.47256
1631013719406880;12.00827
1631013719422500;6.954346
1631013719438130;0.1989441
1631013719453750;-7.772064
1631013719469380;-16.10953
1631013719485010;-23.99542
1631013719500630;-30.96149
1631013719516260;-37.09009
1631013719531880;-42.84641
1631013719547510;-48.87735
1631013719563130;-55.82318
1631013719578760;-64.1517
1631013719594390;-74.08942
1631013719610010;-85.43463
1631013719625640;-97.36594
1631013719641260;-108.2207
1631013719656890;-115.7013
1631013719672510;-117.3665
1631013719688140;-111.4625
1631013719703770;-97.62045
1631013719719390;-77.12463
1631013719735020;-52.57614
1631013719750640;-27.05942
1631013719766270;-3.239777
1631013719781890;17.23859
1631013719797520;33.8287
1631013719813150;46.78146
1631013719828770;56.62189
1631013719844400;63.806
1631013719860020;68.57245
1631013719875650;71.05188
1631013719891280;71.41333
1631013719906900;69.98947
1631013719922530;67.28558
1631013719938150;63.87799
1631013719953780;60.31778
1631013719969400;57.03241
1631013719985030;54.2489
1631013720000660;52.07932
1631013720016280;50.48193
1631013720031910;49.32938
1631013720047530;48.37451
1631013720063160;47.26239
1631013720078780;45.58194
1631013720094410;42.9538
1631013720110040;39.21399
1631013720125660;34.4122
1631013720141290;28.89984
1631013720156910;23.15671
1631013720172540;17.59741
1631013720188160;12.40216
1631013720203790;7.41037
1631013720219420;2.18689
1631013720235040;-3.776978
1631013720250670;-10.83139
1631013720266290;-18.95206
1631013720281920;-27.69608
1631013720297540;-36.34317
1631013720313170;-44.20239
1631013720328800;-50.89706
1631013720344420;-56.56662
1631013720360050;-61.89514
1631013720375670;-67.89368
1631013720391300;-75.58096
1631013720406920;-85.51065
1631013720422550;-97.3754
1631013720438180;-109.7791
1631013720453800;-120.3593
1631013720469430;-126.2944
1631013720485050;-125.1063
1631013720500680;-115.4218
1631013720516300;-97.56723
1631013720531930;-73.50574
1631013720547560;-46.28931
1631013720563180;-19.16861
1631013720578810;5.287933
1631013720594430;25.68631
1631013720610060;41.79025
1631013720625680;54.11929
1631013720641310;63.39572
1631013720656940;70.18216
1631013720672560;74.73721
1631013720688190;77.15103
1631013720703810;77.55942
1631013720719440;76.32373
1631013720735060;74.04073
1631013720750690;71.39334
1631013720766320;68.90442
1631013720781940;66.80676
1631013720797570;64.96729
1631013720813190;63.04883
1631013720828820;60.7594
1631013720844440;58.01593
1631013720860070;55.071
1631013720875700;52.32164
1631013720891320;50.12904
1631013720906950;48.50635
1631013720922570;47.01007
1631013720938200;44.92046
1631013720953820;41.50401
1631013720969450;36.41023
1631013720985080;29.86168
1631013721000700;22.63425
1631013721016330;15.69556
1631013721031950;9.772644
1631013721047580;4.988052
1631013721063200;0.7895813
1631013721078830;-3.755676
1631013721094460;-9.505798
1631013721110080;-16.81778
1631013721125710;-25.3092
1631013721141330;-34.07236
1631013721156960;-42.09341
1631013721172580;-48.74463
1631013721188210;-54.04498
1631013721203840;-58.62335
1631013721219460;-63.40457
1631013721235090;-69.24454
1631013721250710;-76.76859
1631013721266340;-86.21939
1631013721281960;-97.33977
1631013721297590;-109.2259
1631013721313220;-120.1661
1631013721328840;-127.7463
1631013721344470;-129.3531
1631013721360090;-123.0448
1631013721375720;-108.33
1631013721391340;-86.54131
1631013721406970;-60.46098
1631013721422600;-33.41159
1631013721438220;-8.22168
1631013721453850;13.46907
1631013721469470;31.25443
1631013721485100;45.47614
1631013721500720;56.61244
1631013721516350;64.91223
1631013721531980;70.38319
1631013721547600;73.02855
1631013721563230;73.1869
1631013721578850;71.55415
1631013721594480;69.07333
1631013721610100;66.565
1631013721625730;64.56517
1631013721641360;63.16574
1631013721656980;62.17415
1631013721672610;61.3253
1631013721688230;60.47035
1631013721703860;59.63063
1631013721719480;58.88698
1631013721735110;58.26785
1631013721750740;57.56895
1631013721766360;56.46474
1631013721781990;54.62166
1631013721797610;51.88394
1631013721813240;48.32915
1631013721828860;44.20009
1631013721844490;39.77722
1631013721860120;35.1913
1631013721875740;30.46317
1631013721891370;25.49265
1631013721906990;20.25604
1631013721922620;14.81589
1631013721938240;9.317474
1631013721953870;3.851776
1631013721969500;-1.625107
1631013721985120;-7.317078
1631013722000750;-13.46121
1631013722016370;-20.15668
1631013722032000;-27.29356
1631013722047620;-34.53676
1631013722063250;-41.50389
1631013722078880;-47.91698
1631013722094500;-53.72989
1631013722110130;-59.14622
1631013722125750;-64.46298
1631013722141380;-70.08112
1631013722157010;-76.43005
1631013722172630;-84.01614
1631013722188260;-93.26865
1631013722203880;-104.2188
1631013722219510;-116.0874
1631013722235130;-127.032
1631013722250760;-134.3705
1631013722266390;-135.276
1631013722282010;-127.7874
1631013722297640;-111.6324
1631013722313260;-88.46634
1631013722328890;-61.37262
1631013722344510;-33.79585
1631013722360140;-8.521652
1631013722375770;12.94167
1631013722391390;30.36217
1631013722407020;44.2032
1631013722422640;55.01553
1631013722438270;63.00876
1631013722453890;68.10909
1631013722469520;70.27278
1631013722485150;69.80627
1631013722500770;67.52917
1631013722516400;64.60149
1631013722532020;62.12614
1631013722547650;60.72159
1631013722563270;60.36269
1631013722578900;60.45663
1631013722594530;60.2413
1631013722610150;59.21487
1631013722625780;57.38069
1631013722641400;55.21759
1631013722657030;53.33797
1631013722672650;52.06721
1631013722688280;51.18864
1631013722703910;50.01726
1631013722719530;47.75322
1631013722735160;43.89439
1631013722750780;38.51656
1631013722766410;32.22353
1631013722782030;25.8676
1631013722797660;20.12939
1631013722813290;15.25902
1631013722828910;10.98358
1631013722844540;6.70665
1631013722860160;1.811371
1631013722875790;-4.115204
1631013722891410;-11.02864
1631013722907040;-18.51227
1631013722922670;-25.85709
1631013722938290;-32.3941
1631013722953920;-37.71135
1631013722969540;-41.83099
1631013722985170;-45.20731
1631013723000790;-48.5983
1631013723016420;-52.89536
1631013723032050;-58.91295
1631013723047670;-67.21751
1631013723063300;-77.80795
1631013723078920;-89.90129
1631013723094550;-101.7328
1631013723110170;-110.6936
1631013723125800;-113.9214
1631013723141430;-109.1333
1631013723157050;-95.54094
1631013723172680;-74.22038
1631013723188300;-47.93997
1631013723203930;-20.25066
1631013723219550;5.584427
1631013723235180;27.39676
1631013723250810;44.40077
1631013723266430;56.8098
1631013723282060;65.28688
1631013723297680;70.40666
1631013723313310;72.56358
1631013723328930;72.05531
1631013723344560;69.4292
1631013723360190;65.57539
1631013723375810;61.57805
1631013723391440;58.47363
1631013723407060;56.8262
1631013723422690;56.60252
1631013723438310;57.23201
1631013723453940;57.93814
1631013723469570;58.08157
1631013723485190;57.41003
1631013723500820;56.04082
1631013723516440;54.28877
1631013723532070;52.42889
1631013723547690;50.47624
1631013723563320;48.22083
1631013723578950;45.33333
1631013723594570;41.51479
1631013723610200;36.62459
1631013723625820;30.71432
1631013723641450;24.04016
1631013723657070;17.0204
1631013723672700;10.17679
1631013723688330;3.960861
1631013723703950;-1.422791
1631013723719580;-6.153915
1631013723735200;-10.81264
1631013723750830;-16.12053
1631013723766450;-22.62309
1631013723782080;-30.35306
1631013723797710;-38.7684
1631013723813330;-46.95618
1631013723828960;-54.07022
1631013723844580;-59.69202
1631013723860210;-64.03741
1631013723875830;-67.88786
1631013723891460;-72.29535
1631013723907090;-78.30782
1631013723922710;-86.68564
1631013723938340;-97.60078
1631013723953960;-110.4579
1631013723969590;-123.7073
1631013723985210;-134.9488
1631013724000840;-141.3394
1631013724016470;-140.3825
1631013724032090;-130.6874
1631013724047720;-112.513
1631013724063340;-87.81827
1631013724078970;-59.6391
1631013724094590;-31.2314
1631013724110220;-5.173172
1631013724125850;17.13275
1631013724141470;35.42155
1631013724157100;50.13747
1631013724172720;61.93543
1631013724188350;71.21078
1631013724203970;78.05226
1631013724219600;82.43152
1631013724235230;84.41496
1631013724250850;84.3644
1631013724266480;82.93838
1631013724282100;80.89674
1631013724297730;78.88152
1631013724313350;77.24893
1631013724328980;76.06515
1631013724344610;75.18406
1631013724360230;74.47677
1631013724375860;73.87582
1631013724391480;73.40105
1631013724407110;73.03719
1631013724422730;72.52983
1631013724438360;71.4289
1631013724453990;69.20222
1631013724469610;65.49545
1631013724485240;60.357
1631013724500860;54.2926
1631013724516490;47.99035
1631013724532110;42.00507
1631013724547740;36.50786
1631013724563370;31.15283
1631013724578990;25.40456
1631013724594620;18.89175
1631013724610240;11.6711
1631013724625870;4.243782
1631013724641490;-2.737076
1631013724657120;-8.867615
1631013724672750;-14.26463
1631013724688370;-19.4707
1631013724704000;-25.18518
1631013724719620;-31.82752
1631013724735250;-39.28667
1631013724750880;-46.97646
1631013724766500;-54.16366
1631013724782130;-60.35931
1631013724797750;-65.58658
1631013724813380;-70.48015
1631013724829000;-76.00645
1631013724844630;-83.19675
1631013724860260;-92.79515
1631013724875880;-104.9071
1631013724891510;-118.8039
1631013724907130;-132.7369
1631013724922760;-144.1276
1631013724938380;-149.9767
1631013724954010;-147.7238
1631013724969640;-136.0706
1631013724985260;-115.5266
1631013725000890;-88.40572
1631013725016510;-58.11497
1631013725032140;-28.13763
1631013725047760;-1.096298
1631013725063390;21.68439
1631013725079020;40.06053
1631013725094640;54.5794
1631013725110270;65.90766
1631013725125890;74.53934
1631013725141520;80.75019
1631013725157140;84.78923
1631013725172770;86.99387
1631013725188400;87.8343
1631013725204020;87.83429
1631013725219650;87.38702
1631013725235270;86.68456
1631013725250900;85.72769
1631013725266520;84.42085
1631013725282150;82.7308
1631013725297780;80.79214
1631013725313400;78.8838
1631013725329030;77.30093
1631013725344650;76.16839
1631013725360280;75.30007
1631013725375900;74.23817
1631013725391530;72.39223
1631013725407160;69.34766
1631013725422780;65.00806
1631013725438410;59.71607
1631013725454030;54.04452
1631013725469660;48.57098
1631013725485280;43.57726
1631013725500910;38.9142
1631013725516540;34.08701
1631013725532160;28.53189
1631013725547790;21.93029
1631013725563410;14.44117
1631013725579040;6.663052
1631013725594660;-0.6449928
1631013725610290;-6.932198
1631013725625920;-12.1353
1631013725641540;-16.71061
1631013725657170;-21.41269
1631013725672790;-26.92442
1631013725688420;-33.54447
1631013725704040;-41.09611
1631013725719670;-49.0179
1631013725735300;-56.64547
1631013725750920;-63.51872
1631013725766550;-69.55318
1631013725782170;-75.0965
1631013725797800;-80.85308
1631013725813420;-87.72494
1631013725829050;-96.54275
1631013725844680;-107.7399
1631013725860300;-120.9102
1631013725875930;-134.5725
1631013725891550;-146.1409
1631013725907180;-152.4341
1631013725922800;-150.5761
1631013725938430;-139.0019
1631013725954060;-118.1469
1631013725969680;-90.42573
1631013725985310;-59.50101
1631013726000930;-29.11007
1631013726016560;-2.032803
1631013726032180;20.45925
1631013726047810;38.4142
1631013726063440;52.58156
1631013726079060;63.71257
1631013726094690;72.20452
1631013726110310;78.12595
1631013726125940;81.52076
1631013726141560;82.70081
1631013726157190;82.28616
1631013726172820;81.0815
1631013726188440;79.72661
1631013726204070;78.54544
1631013726219690;77.48225
1631013726235320;76.33538
1631013726250940;74.97665
1631013726266570;73.49687
1631013726282200;72.23782
1631013726297820;71.5307
1631013726313450;71.50351
1631013726329070;71.85864
1631013726344700;71.94666
1631013726360320;71.00013
1631013726375950;68.45256
1631013726391580;64.20321
1631013726407200;58.62669
1631013726422830;52.39467
1631013726438450;46.16706
1631013726454080;40.35369
1631013726469700;34.98856
1631013726485330;29.7933
1631013726500960;24.37861
1631013726516580;18.42417
1631013726532210;11.8672
1631013726547830;4.928776
1631013726563460;-1.951897
1631013726579080;-8.300056
1631013726594710;-13.7947
1631013726610340;-18.45663
1631013726625960;-22.69432
1631013726641590;-27.14885
1631013726657210;-32.45486
1631013726672840;-38.90321
1631013726688460;-46.29329
1631013726704090;-53.99501
1631013726719720;-61.28191
1631013726735340;-67.67122
1631013726750970;-73.15139
1631013726766590;-78.26006
1631013726782220;-83.80698
1631013726797840;-90.6831
1631013726813470;-99.55197
1631013726829100;-110.5941
1631013726844720;-123.1546
1631013726860350;-135.6328
1631013726875970;-145.5471
1631013726891600;-149.9742
1631013726907220;-146.4282
1631013726922850;-133.7051
1631013726938480;-112.4812
1631013726954100;-85.18906
1631013726969730;-55.35297
1631013726985350;-26.47418
1631013727000980;-1.143291
1631013727016610;19.38312
1631013727032230;35.08054
1631013727047860;46.56755
1631013727063480;54.641
1631013727079110;59.85331
1631013727094730;62.55966
1631013727110360;63.07071
1631013727125990;61.88366
1631013727141610;59.77258
1631013727157240;57.66014
1631013727172860;56.37996
1631013727188490;56.32774
1631013727204110;57.36384
1631013727219740;58.92173
1631013727235370;60.28897
1631013727250990;60.98172
1631013727266620;60.87154
1631013727282240;60.14636
1631013727297870;59.0215
1631013727313490;57.48793
1631013727329120;55.16123
1631013727344750;51.49041
1631013727360370;46.01756
1631013727376000;38.70501
1631013727391620;30.1279
1631013727407250;21.27671
1631013727422870;13.29108
1631013727438500;6.89226
1631013727454130;2.184422
1631013727469750;-1.462278
1631013727485380;-5.045595
1631013727501000;-9.483845
1631013727516630;-15.12025
1631013727532250;-21.54812
1631013727547880;-27.83213
1631013727563510;-32.96101
1631013727579130;-36.43201
1631013727594760;-38.50709
1631013727610380;-40.17081
1631013727626010;-42.75566
1631013727641630;-47.53549
1631013727657260;-55.28693
1631013727672890;-66.04671
1631013727688510;-78.97735
1631013727704140;-92.32836
1631013727719760;-103.6516
1631013727735390;-110.1996
1631013727751010;-109.6327
1631013727766640;-100.7422
1631013727782270;-83.91576
1631013727797890;-61.09809
1631013727813520;-35.28748
1631013727829140;-9.629032
1631013727844770;13.39627
1631013727860390;32.37517
1631013727876020;46.96308
1631013727891650;57.45998
1631013727907270;64.39718
1631013727922900;68.26982
1631013727938520;69.50882
1631013727954150;68.60097
1631013727969770;66.16797
1631013727985400;62.98287
1631013728001030;59.80583
1631013728016650;57.21262
1631013728032280;55.44589
1631013728047900;54.45247
1631013728063530;54.01065
1631013728079150;53.92995
1631013728094780;54.12813
1631013728110410;54.58852
1631013728126030;55.25077
1631013728141660;55.82362
1631013728157280;55.79187
1631013728172910;54.58746
1631013728188530;51.77479
1631013728204160;47.30331
1631013728219790;41.52028
1631013728235410;35.01666
1631013728251040;28.3542
1631013728266660;21.82892
1631013728282290;15.35201
1631013728297910;8.598221
1631013728313540;1.21228
1631013728329170;-6.9496
1631013728344790;-15.68031
1631013728360420;-24.5
1631013728376040;-32.8679
1631013728391670;-40.4464
1631013728407290;-47.29726
1631013728422920;-54.00484
1631013728438550;-61.52824
1631013728454170;-70.88677
1631013728469800;-82.81187
1631013728485420;-97.22958
1631013728501050;-112.9344
1631013728516670;-127.5568
1631013728532300;-137.9558
1631013728547930;-140.96
1631013728563550;-134.4133
1631013728579180;-117.9073
1631013728594800;-93.04094
1631013728610430;-63.02257
1631013728626050;-31.59784
1631013728641680;-2.066505
1631013728657310;23.4907
1631013728672930;44.33676
1631013728688560;60.73425
1631013728704180;73.30132
1631013728719810;82.59101
1631013728735430;88.9672
1631013728751060;92.67287
1631013728766690;94.0554
1631013728782310;93.60803
1631013728797940;91.86557
1631013728813560;89.22755
1631013728829190;85.85366
1631013728844810;81.7338
1631013728860440;76.86868
1631013728876070;71.50125
1631013728891690;66.13625
1631013728907320;61.51346
1631013728922940;58.31554
1631013728938570;56.86665
1631013728954190;56.96193
1631013728969820;57.8486
1631013728985450;58.42535
1631013729001070;57.57401
1631013729016700;54.54148
1631013729032320;49.15141
1631013729047950;41.85568
1631013729063570;33.51894
1631013729079200;25.03099
1631013729094830;16.96863
1631013729110450;9.366135
1631013729126080;1.780624
1631013729141700;-6.393356
1631013729157330;-15.5669
1631013729172960;-25.69341
1631013729188580;-36.24664
1631013729204210;-46.47305
1631013729219830;-55.73308
1631013729235460;-63.75119
1631013729251080;-70.73444
1631013729266710;-77.30219
1631013729282340;-84.30916
1631013729297960;-92.68968
1631013729313590;-103.1959
1631013729329210;-116.1102
1631013729344840;-130.8299
1631013729360460;-145.6259
1631013729376090;-157.7159
1631013729391720;-163.8273
1631013729407340;-161.1608
1631013729422970;-148.3792
1631013729438590;-126.1901
1631013729454220;-97.20306
1631013729469840;-65.08122
1631013729485470;-33.36409
1631013729501100;-4.514847
1631013729516720;20.39001
1631013729532350;41.43063
1631013729547970;59.12105
1631013729563600;73.87737
1631013729579220;85.73267
1631013729594850;94.4948
1631013729610480;100.106
1631013729626100;102.8672
1631013729641730;103.4725
1631013729657350;102.7489
1631013729672980;101.4035
1631013729688600;99.76611
1631013729704230;97.88884
1631013729719860;95.69356
1631013729735480;93.19266
1631013729751110;90.59953
1631013729766730;88.18932
1631013729782360;86.14908
1631013729797980;84.3895
1631013729813610;82.55333
1631013729829240;80.10791
1631013729844860;76.64322
1631013729860490;72.0006
1631013729876110;66.3412
1631013729891740;60.03442
1631013729907360;53.41273
1631013729922990;46.62767
1631013729938620;39.61621
1631013729954240;32.28421
1631013729969870;24.69241
1631013729985490;17.1492
1631013730001120;10.08943
1631013730016740;3.779633
1631013730032370;-1.881882
1631013730048000;-7.472504
1631013730063620;-13.74432
1631013730079250;-21.27184
1631013730094870;-30.08788
1631013730110500;-39.62137
1631013730126120;-48.92929
1631013730141750;-57.14299
1631013730157380;-63.91765
1631013730173000;-69.5929
1631013730188630;-75.06766
1631013730204250;-81.46677
1631013730219880;-89.81667
1631013730235500;-100.6825
1631013730251130;-113.982
1631013730266760;-128.7403
1631013730282380;-143.0612
1631013730298010;-154.2688
1631013730313630;-159.4154
1631013730329260;-156.0433
1631013730344880;-143.0016
1631013730360510;-120.9984
1631013730376140;-92.52197
1631013730391760;-61.18204
1631013730407390;-30.63966
1631013730423010;-3.653107
1631013730438640;18.5157
1631013730454260;35.91483
1631013730469890;49.39398
1631013730485520;59.87129
1631013730501140;67.87029
1631013730516770;73.48671
1631013730532390;76.68324
1631013730548020;77.63757
1631013730563640;76.91272
1631013730579270;75.35419
1631013730594900;73.75621
1631013730610520;72.55487
1631013730626150;71.74432
1631013730641770;71.04662
1631013730657400;70.22736
1631013730673020;69.30003
1631013730688650;68.4987
1631013730704280;68.03838
1631013730719900;67.82953
1631013730735530;67.35445
1631013730751150;65.78493
1631013730766780;62.40433
1631013730782400;56.92178
1631013730798030;49.71692
1631013730813660;41.68272
1631013730829280;33.88217
1631013730844910;27.08891
1631013730860530;21.46144
1631013730876160;16.49297
1631013730891780;11.26395
1631013730907410;4.899887
1631013730923040;-3.046692
1631013730938660;-12.35979
1631013730954290;-22.31046
1631013730969910;-31.9193
1631013730985540;-40.38112
1631013731001160;-47.36989
1631013731016790;-53.19885
1631013731032420;-58.69702
1631013731048040;-65.04337
1631013731063670;-73.4536
1631013731079290;-84.72322
1631013731094920;-98.78131
1631013731110540;-114.3242
1631013731126170;-128.8024
1631013731141800;-138.873
1631013731157420;-141.2947
1631013731173050;-133.9519
1631013731188670;-116.6548
1631013731204300;-91.2702
1631013731219920;-61.18857
1631013731235550;-30.29135
1631013731251180;-1.871994
1631013731266800;22.07083
1631013731282430;40.96889
1631013731298050;55.28008
1631013731313680;65.86115
1631013731329300;73.43102
1631013731344930;78.31789
1631013731360560;80.66302
1631013731376180;80.68732
1631013731391810;78.96008
1631013731407430;76.35484
1631013731423060;73.84084
1631013731438680;72.08989
1631013731454310;71.27812
1631013731469940;71.14317
1631013731485560;71.25702
1631013731501190;71.31174
1631013731516810;71.23042
1631013731532440;71.11485
1631013731548060;71.01283
1631013731563690;70.7308
1631013731579320;69.78899
1631013731594940;67.68549
1631013731610570;64.15224
1631013731626190;59.31856
1631013731641820;53.72562
1631013731657440;47.99876
1631013731673070;42.62891
1631013731688700;37.64499
1631013731704320;32.65991
1631013731719950;27.08777
1631013731735570;20.49638
1631013731751200;12.88167
1631013731766820;4.710564
1631013731782450;-3.261322
1631013731798080;-10.39881
1631013731813700;-16.51109
1631013731829330;-21.96569
1631013731844950;-27.52969
1631013731860580;-33.98771
1631013731876210;-41.73857
1631013731891830;-50.61906
1631013731907460;-59.9845
1631013731923080;-68.96851
1631013731938710;-76.90928
1631013731954330;-83.63692
1631013731969960;-89.57167
1631013731985590;-95.57858
1631013732001210;-102.7507
1631013732016840;-112.0231
1631013732032460;-123.8531
1631013732048090;-137.8332
1631013732063710;-152.439
1631013732079340;-165.103
1631013732094970;-172.571
1631013732110590;-171.7641
1631013732126220;-160.7415
1631013732141840;-139.5187
1631013732157470;-110.2102
1631013732173090;-76.44785
1631013732188720;-42.23532
1631013732204350;-10.75352
1631013732219970;16.35865
1631013732235600;38.98837
1631013732251220;57.89708
1631013732266850;73.91856
1631013732282470;87.36974
1631013732298100;98.03489
1631013732313730;105.5285
1631013732329350;109.7629
1631013732344980;111.1948
1631013732360600;110.7287
1631013732376230;109.3412
1631013732391850;107.736
1631013732407480;106.1597
1631013732423110;104.545
1631013732438730;102.7399
1631013732454360;100.7665
1631013732469980;98.82841
1631013732485610;97.163
1631013732501230;95.8278
1631013732516860;94.54441
1631013732532490;92.78597
1631013732548110;89.9976
1631013732563740;85.88571
1631013732579360;80.5668
1631013732594990;74.50503
1631013732610610;68.26477
1631013732626240;62.27254
1631013732641870;56.57993
1631013732657490;50.88152
1631013732673120;44.66418
1631013732688740;37.39297
1631013732704370;28.81023
1631013732719990;19.01431
1631013732735620;8.506248
1631013732751250;-2.018784
1631013732766870;-11.84892
1631013732782500;-20.55589
1631013732798120;-28.11865
1631013732813750;-34.91895
1631013732829370;-41.55245
1631013732845000;-48.52229
1631013732860630;-56.01022
1631013732876250;-63.76261
1631013732891880;-71.2733
1631013732907500;-78.05589
1631013732923130;-83.93198
1631013732938750;-89.21751
1631013732954380;-94.68623
1631013732970010;-101.3888
1631013732985630;-110.2786
1631013733001260;-121.8521
1631013733016880;-135.6965
1631013733032510;-150.249
1631013733048130;-162.812
1631013733063760;-170.0782
1631013733079390;-169.0187
1631013733095010;-157.9158
1631013733110640;-137.0744
1631013733126260;-108.8393
1631013733141890;-76.88894
1631013733157510;-45.03152
1631013733173140;-16.14687
1631013733188770;8.372025
1631013733204390;28.4929
1631013733220020;44.91955
1631013733235640;58.46147
1631013733251270;69.61671
1631013733266890;78.52701
1631013733282520;85.23645
1631013733298150;89.86315
1631013733313770;92.72687
1631013733329400;94.23224
1631013733345020;94.73932
1631013733360650;94.48785
1631013733376270;93.56466
1631013733391900;92.04666
1631013733407530;90.06766
1631013733423150;87.85741
1631013733438780;85.65753
1631013733454400;83.60303
1631013733470030;81.57221
1631013733485650;79.21538
1631013733501280;76.05176
1631013733516910;71.67501
1631013733532530;65.98646
1631013733548160;59.17541
1631013733563780;51.73079
1631013733579410;44.25652
1631013733595030;37.36181
1631013733610660;31.61009
1631013733626290;27.46127
1631013733641910;25.19925
1631013733657540;24.845
1631013733673160;26.09817
1631013733688790;28.34124
1631013733704410;30.76476
1631013733720040;32.49648
1631013733735670;32.77733
1631013733751290;31.01331
1631013733766920;26.7937
1631013733782540;19.93849
1631013733798170;10.50299
1631013733813790;-1.14398
1631013733829420;-14.40416
1631013733845050;-28.53002
1631013733860670;-42.88425
1631013733876300;-57.14935
1631013733891920;-71.46285
1631013733907550;-86.366
1631013733923170;-102.4805
1631013733938800;-120.0894
1631013733954430;-138.5067
1631013733970050;-155.8914
1631013733985680;-169.3005
1631013734001300;-175.4517
1631013734016930;-171.7777
1631013734032560;-157.394
1631013734048180;-133.6058
1631013734063810;-103.5794
1631013734079430;-71.33813
1631013734095060;-40.55412
1631013734110680;-13.6511
1631013734126310;8.42627
1631013734141940;25.88473
1631013734157560;39.40559
1631013734173190;49.62511
1631013734188810;56.92774
1631013734204440;61.59511
1631013734220060;63.95518
1631013734235690;64.49323
1631013734251320;63.82957
1631013734266940;62.50345
1631013734282570;60.9205
1631013734298190;59.26338
1631013734313820;57.60024
1631013734329440;55.95145
1631013734345070;54.38639
1631013734360700;52.98041
1631013734376320;51.76404
1631013734391950;50.64399
1631013734407570;49.34406
1631013734423200;47.48486
1631013734438820;44.68709
1631013734454450;40.77339
1631013734470080;35.83987
1631013734485700;30.255
1631013734501330;24.47329
1631013734516950;18.83111
1631013734532580;13.3807
1631013734548200;7.861317
1631013734563830;1.878647
1631013734579460;-4.869812
1631013734595080;-12.38789
1631013734610710;-20.34926
1631013734626330;-28.25356
1631013734641960;-35.61419
1631013734657580;-42.20362
1631013734673210;-48.12481
1631013734688840;-53.86755
1631013734704460;-60.18483
1631013734720090;-67.94234
1631013734735710;-77.77821
1631013734751340;-89.67464
1631013734766960;-102.5747
1631013734782590;-114.2881
1631013734798220;-121.8673
1631013734813840;-122.397
1631013734829470;-114.0433
1631013734845090;-96.77831
1631013734860720;-72.50211
1631013734876340;-44.46812
1631013734891970;-16.2153
1631013734907600;9.441475
1631013734923220;31.00332
1631013734938850;48.21853
1631013734954470;61.58203
1631013734970100;71.68143
1631013734985720;78.80978
1631013735001350;82.94225
1631013735016980;84.00341
1631013735032600;82.26436
1631013735048230;78.47447
1631013735063850;73.755
1631013735079480;69.22172
1631013735095100;65.62413
1631013735110730;63.11308
1631013735126360;61.33638
1631013735141980;59.81227
1631013735157610;58.1793
1631013735173230;56.39691
1631013735188860;54.65131
1631013735204480;53.09774
1631013735220110;51.67039
1631013735235740;50.02081
1631013735251360;47.67797
1631013735266990;44.21116
1631013735282610;39.41209
1631013735298240;33.35221
1631013735313860;26.33963
1631013735329490;18.85147
1631013735345120;11.44195
1631013735360740;4.641129
1631013735376370;-1.20359
1631013735391990;-6.079109
1631013735407620;-10.417
1631013735423240;-14.93456
1631013735438870;-20.43147
1631013735454500;-27.43923
1631013735470120;-35.90129
1631013735485750;-45.20603
1631013735501370;-54.39893
1631013735517000;-62.59404
1631013735532620;-69.39155
1631013735548250;-75.04597
1631013735563880;-80.39043
1631013735579500;-86.59469
1631013735595130;-94.73801
1631013735610750;-105.501
1631013735626380;-118.8264
1631013735642000;-133.6726
1631013735657630;-147.9944
1631013735673260;-158.9659
1631013735688880;-163.5854
1631013735704510;-159.4764
1631013735720130;-145.7066
1631013735735760;-123.1737
1631013735751380;-94.46182
1631013735767010;-63.07838
1631013735782640;-32.45306
1631013735798260;-5.07663
1631013735813890;17.91439
1631013735829510;36.59118
1631013735845140;51.72137
1631013735860760;64.19053
1631013735876390;74.59585
1631013735892020;83.08987
1631013735907640;89.49684
1631013735923270;93.60834
1631013735938890;95.35965
1631013735954520;95.02686
1631013735970140;93.12671
1631013735985770;90.3006
1631013736001400;87.12864
1631013736017020;84.01109
1631013736032650;81.18372
1631013736048270;78.79659
1631013736063900;76.99165
1631013736079520;75.82748
1631013736095150;75.21026
1631013736110780;74.74072
1631013736126400;73.75339
1631013736142030;71.51851
1631013736157650;67.54353
1631013736173280;61.8501
1631013736188900;55.02351
1631013736204530;47.96275
1631013736220160;41.45306
1631013736235780;35.84636
1631013736251410;30.87303
1631013736267030;25.8681
1631013736282660;20.16185
1631013736298290;13.46957
1631013736313910;6.041832
1631013736329540;-1.469528
1631013736345160;-8.373573
1631013736360790;-14.32112
1631013736376410;-19.50968
1631013736392040;-24.55648
1631013736407670;-30.21994
1631013736423290;-36.95561
1631013736438920;-44.71284
1631013736454540;-52.94564
1631013736470170;-60.91196
1631013736485790;-68.04243
1631013736501420;-74.22334
1631013736517050;-79.85504
1631013736532670;-85.74174
1631013736548300;-92.83674
1631013736563920;-101.9995
1631013736579550;-113.7252
1631013736595170;-127.8324
1631013736610800;-143.1835
1631013736626430;-157.5055
1631013736642050;-167.6341
1631013736657680;-170.2401
1631013736673300;-162.8396
1631013736688930;-144.7997
1631013736704550;-117.7295
1631013736720180;-85.13206
1631013736735810;-51.22386
1631013736751430;-19.69101
1631013736767060;7.259102
1631013736782680;29.18112
1631013736798310;46.83588
1631013736813930;61.41195
1631013736829560;73.74291
1631013736845190;84.05271
1631013736860810;92.09641
1631013736876440;97.57571
1631013736892060;100.5427
1631013736907690;101.4486
1631013736923310;101.0122
1631013736938940;99.8834
1631013736954570;98.41018
1631013736970190;96.63633
1631013736985820;94.51776
1631013737001440;92.17619
1631013737017070;89.96439
1631013737032690;88.35403
1631013737048320;87.55714
1631013737063950;87.34367
1631013737079570;86.99885
1631013737095200;85.57925
1631013737110820;82.34379
1631013737126450;77.09754
1631013737142070;70.25403
1631013737157700;62.64038
1631013737173330;55.13882
1631013737188950;48.31978
1631013737204580;42.3072
1631013737220200;36.84435
1631013737235830;31.48383
1631013737251450;25.85709
1631013737267080;19.77422
1631013737282710;13.31458
1631013737298330;6.723846
1631013737313960;0.3057327
1631013737329580;-5.727806
1631013737345210;-11.37013
1631013737360830;-16.8336
1631013737376460;-22.52205
1631013737392090;-28.77287
1631013737407710;-35.78148
1631013737423340;-43.38747
1631013737438960;-51.1782
1631013737454590;-58.61275
1631013737470210;-65.25003
1631013737485840;-70.9954
1631013737501470;-76.17474
1631013737517090;-81.56121
1631013737532720;-88.16649
1631013737548340;-97.09192
1631013737563970;-109.0175
1631013737579590;-123.764
1631013737595220;-139.9057
1631013737610850;-154.6573
1631013737626470;-164.4667
1631013737642100;-165.9508
1631013737657720;-157.036
1631013737673350;-137.7487
1631013737688970;-110.2939
1631013737704600;-78.34273
1631013737720230;-45.87779
1631013737735850;-16.10447
1631013737751480;9.202408
1631013737767100;29.60709
1631013737782730;45.57307
1631013737798350;57.81236
1631013737813980;66.86605
1631013737829610;72.99214
1631013737845230;76.36575
1631013737860860;77.29128
1631013737876480;76.35336
1631013737892110;74.43253
1631013737907730;72.3924
1631013737923360;70.86529
1631013737938990;70.05853
1631013737954610;69.74416
1631013737970240;69.49128
1631013737985860;68.90487
1631013738001490;67.8622
1631013738017110;66.49334
1631013738032740;65.07455
1631013738048370;63.74908
1631013738063990;62.41466
1631013738079620;60.68633
1631013738095240;58.05406
1631013738110870;54.13482
1631013738126490;48.85155
1631013738142120;42.5217
1631013738157750;35.77414
1631013738173370;29.35006
1631013738189000;23.79667
1631013738204620;19.23599
1631013738220250;15.26178
1631013738235870;11.08406
1631013738251500;5.84531
1631013738267130;-1.041122
1631013738282750;-9.530212
1631013738298380;-18.97845
1631013738314000;-28.34332
1631013738329630;-36.6302
1631013738345250;-43.32058
1631013738360880;-48.62611
1631013738376510;-53.41497
1631013738392130;-58.87341
1631013738407760;-66.1849
1631013738423380;-76.06541
1631013738439010;-88.49655
1631013738454630;-102.5168
1631013738470260;-116.1807
1631013738485890;-126.7748
1631013738501510;-131.3538
1631013738517140;-127.5169
1631013738532760;-114.2249
1631013738548390;-92.3309
1631013738564010;-64.48387
1631013738579640;-34.37296
1631013738595270;-5.666588
1631013738610890;19.0194
1631013738626520;38.6101
1631013738642140;53.37715
1631013738657770;64.27743
1631013738673390;72.25299
1631013738689020;77.82078
1631013738704650;81.13406
1631013738720270;82.26356
1631013738735900;81.55721
1631013738751520;79.66238
1631013738767150;77.39833
1631013738782770;75.43161
1631013738798400;74.05367
1631013738814030;73.19505
1631013738829650;72.53526
1631013738845280;71.80317
1631013738860900;70.87761
1631013738876530;69.80681
1631013738892160;68.69244
1631013738907780;67.52026
1631013738923410;66.05502
1631013738939030;63.95386
1631013738954660;60.89435
1631013738970280;56.75114
1631013738985910;51.67895
1631013739001540;46.01758
1631013739017160;40.11778
1631013739032790;34.17035
1631013739048410;28.19398
1631013739064040;22.07673
1631013739079660;15.77714
1631013739095290;9.398251
1631013739110920;3.154316
1631013739126540;-2.761711
1631013739142170;-8.365887
1631013739157790;-13.91824
1631013739173420;-19.84211
1631013739189040;-26.51
1631013739204670;-34.07957
1631013739220300;-42.34143
1631013739235920;-50.83099
1631013739251550;-59.00967
1631013739267170;-66.452
1631013739282800;-73.01948
1631013739298420;-78.94962
1631013739314050;-84.79132
1631013739329680;-91.38074
1631013739345300;-99.65379
1631013739360930;-110.3485
1631013739376550;-123.5266
1631013739392180;-138.1991
1631013739407800;-152.1043
1631013739423430;-162.0499
1631013739439060;-164.6842
1631013739454680;-157.6068
1631013739470310;-140.2616
1631013739485930;-114.3026
1631013739501560;-83.12267
1631013739517180;-50.78675
1631013739532810;-20.81115
1631013739548440;4.678688
1631013739564060;25.14515
1631013739579690;41.23288
1631013739595310;54.04847
1631013739610940;64.49123
1631013739626560;72.94948
1631013739642190;79.39635
1631013739657820;83.66176
1631013739673440;85.77788
1631013739689070;86.14632
1631013739704690;85.48082
1631013739720320;84.51601
1631013739735940;83.78706
1631013739751570;83.40881
1631013739767200;83.19105
1631013739782820;82.82259
1631013739798450;82.13781
1631013739814070;81.24536
1631013739829700;80.43888
1631013739845320;79.95242
1631013739860950;79.67893
1631013739876580;79.14003
1631013739892200;77.61042
1631013739907830;74.46413
1631013739923450;69.54724
1631013739939080;63.25639
1631013739954700;56.43102
1631013739970330;49.98178
1631013739985960;44.49427
1631013740001580;40.01478
1631013740017210;36.10731
1631013740032830;32.04996
1631013740048460;27.19545
1631013740064080;21.22229
1631013740079710;14.19391
1631013740095340;6.537487
1631013740110960;-1.125748
1631013740126590;-8.201225
1631013740142210;-14.311
1631013740157840;-19.45543
1631013740173460;-24.00482
1631013740189090;-28.6134
1631013740204720;-33.91781
1631013740220340;-40.34525
1631013740235970;-47.86075
1631013740251590;-56.01049
1631013740267220;-64.05341
1631013740282840;-71.32019
1631013740298470;-77.46446
1631013740314100;-82.68324
1631013740329720;-87.7065
1631013740345350;-93.61311
1631013740360970;-101.5773
1631013740376600;-112.3996
1631013740392220;-126.081
1631013740407850;-141.4208
1631013740423480;-155.9529
1631013740439100;-166.3166
1631013740454730;-169.1006
1631013740470350;-161.932
1631013740485980;-144.3255
1631013740501600;-117.9367
1631013740517230;-86.1036
1631013740532860;-52.81867
1631013740548480;-21.60226
1631013740564110;5.289642
1631013740579730;27.09579
1631013740595360;44.18513
1631013740610980;57.48869
1631013740626610;67.93465
1631013740642240;76.14542
1631013740657860;82.38997
1631013740673490;86.78084
1631013740689110;89.40305
1631013740704740;90.46902
1631013740720360;90.34987
1631013740735990;89.46587
1631013740751620;88.22728
1631013740767240;86.96327
1631013740782870;85.87759
1631013740798490;85.06779
1631013740814120;84.56273
1631013740829740;84.32817
1631013740845370;84.24837
1631013740861000;84.14091
1631013740876620;83.73458
1631013740892250;82.72068
1631013740907870;80.83009
1631013740923500;77.88779
1631013740939120;73.87015
1631013740954750;68.96007
1631013740970380;63.48656
1631013740986000;57.82702
1631013741001630;52.3382
1631013741017250;47.17648
1631013741032880;42.31094
1631013741048500;37.59495
1631013741064130;32.81137
1631013741079760;27.83459
1631013741095380;22.63161
1631013741111010;17.2112
1631013741126630;11.56046
1631013741142260;5.70652
1631013741157890;-0.2840958
1631013741173510;-6.221115
1631013741189140;-11.76465
1631013741204760;-16.62317
1631013741220390;-20.69133
1631013741236010;-24.26817
1631013741251640;-27.97648
1631013741267270;-32.5894
1631013741282890;-38.63424
1631013741298520;-46.15594
1631013741314140;-54.5969
1631013741329770;-63.01469
1631013741345390;-70.55444
1631013741361020;-76.78949
1631013741376650;-81.94122
1631013741392270;-86.83962
1631013741407900;-92.61869
1631013741423520;-100.3561
1631013741439150;-110.7336
1631013741454770;-123.6572
1631013741470400;-138.0056
1631013741486030;-151.5953
1631013741501650;-161.4194
1631013741517280;-164.3063
1631013741532900;-157.8421
1631013741548530;-141.2523
1631013741564150;-115.7983
1631013741579780;-84.52568
1631013741595410;-51.34995
1631013741611030;-19.87386
1631013741626660;7.480827
1631013741642280;29.80871
1631013741657910;47.36828
1631013741673530;60.92596
1631013741689160;71.22108
1631013741704790;78.69785
1631013741720410;83.62063
1631013741736040;86.28336
1631013741751660;87.15
1631013741767290;86.85956
1631013741782910;86.04816
1631013741798540;85.17448
1631013741814170;84.43446
1631013741829790;83.80177
1631013741845420;83.13812
1631013741861040;82.34495
1631013741876670;81.46006
1631013741892290;80.6412
1631013741907920;80.05349
1631013741923550;79.72588
1631013741939170;79.45371
1631013741954800;78.7973
1631013741970420;77.20518
1631013741986050;74.24186
1631013742001670;69.75253
1631013742017300;63.94373
1631013742032930;57.32434
1631013742048550;50.5397
1631013742064180;44.14836
1631013742079800;38.4951
1631013742095430;33.59961
1631013742111050;29.19598
1631013742126680;24.80978
1631013742142310;19.92857
1631013742157930;14.24943
1631013742173560;7.811211
1631013742189180;1.066917
1631013742204810;-5.348228
1631013742220430;-10.87465
1631013742236060;-15.32338
1631013742251690;-19.01313
1631013742267310;-22.65199
1631013742282940;-27.05235
1631013742298560;-32.76425
1631013742314190;-39.87116
1631013742329810;-47.93291
1631013742345440;-56.18374
1631013742361070;-63.81424
1631013742376690;-70.30431
1631013742392320;-75.59786
1631013742407940;-80.15923
1631013742423570;-84.88538
1631013742439190;-90.85973
1631013742454820;-99.07277
1631013742470450;-110.0902
1631013742486070;-123.6584
1631013742501700;-138.4437
1631013742517320;-152.0071
1631013742532950;-161.1547
1631013742548570;-162.7153
1631013742564200;-154.5549
1631013742579830;-136.3725
1631013742595450;-109.9872
1631013742611080;-78.80185
1631013742626700;-46.76922
1631013742642330;-17.22146
1631013742657950;7.914719
1631013742673580;28.19549
1631013742689210;44.17404
1631013742704830;56.66237
1631013742720460;66.21255
1631013742736080;72.96938
1631013742751710;76.9127
1631013742767330;78.18776
1631013742782960;77.3075
1631013742798590;75.12363
1631013742814210;72.53543
1631013742829840;70.19209
1631013742845460;68.36102
1631013742861090;66.95872
1631013742876710;65.81263
1631013742892340;64.85795
1631013742907970;64.26652
1631013742923590;64.34511
1631013742939220;65.26669
1631013742954840;66.85461
1631013742970470;68.48795
1631013742986090;69.30627
1631013743001720;68.51446
1631013743017350;65.7746
1631013743032970;61.31983
1631013743048600;55.8969
1631013743064220;50.46223
1631013743079850;45.81097
1631013743095470;42.27803
1631013743111100;39.65974
1631013743126730;37.31954
1631013743142350;34.43079
1631013743157980;30.31673
1631013743173600;24.74373
1631013743189230;18.02321
1631013743204850;10.87865
1631013743220480;4.129921
1631013743236110;-1.693016
1631013743251730;-6.637352
1631013743267360;-11.28188
1631013743282980;-16.45251
1631013743298610;-22.76585
1631013743314230;-30.29425
1631013743329860;-38.53061
1631013743345490;-46.68718
1631013743361110;-54.1146
1631013743376740;-60.57124
1631013743392360;-66.30168
1631013743407990;-71.89937
1631013743423610;-78.09315
1631013743439240;-85.61165
1631013743454870;-95.04308
1631013743470490;-106.6914
1631013743486120;-120.1477
1631013743501740;-134.0285
1631013743517370;-145.7708
1631013743532990;-152.1245
1631013743548620;-150.0675
1631013743564250;-137.9015
1631013743579870;-116.0715
1631013743595500;-87.17995
1631013743611120;-55.19808
1631013743626750;-24.18021
1631013743642370;2.852966
1631013743658000;24.50622
1631013743673630;40.81133
1631013743689250;52.55367
1631013743704880;60.58247
1631013743720500;65.44086
1631013743736130;67.41437
1631013743751760;66.86272
1631013743767380;64.47238
1631013743783010;61.29233
1631013743798630;58.46136
1631013743814260;56.80891
1631013743829880;56.54436
1631013743845510;57.26585
1631013743861140;58.24334
1631013743876760;58.85425
1631013743892390;58.90196
1631013743908010;58.6255
1631013743923640;58.46639
1631013743939260;58.64669
1631013743954890;58.93005
1631013743970520;58.57992
1631013743986140;56.7121
1631013744001770;52.72124
1631013744017390;46.67204
1631013744033020;39.31642
1631013744048640;31.81185
1631013744064270;25.19187
1631013744079900;19.91415
1631013744095520;15.66963
1631013744111150;11.56532
1631013744126770;6.619457
1631013744142400;0.2054214
1631013744158020;-7.639942
1631013744173650;-16.21306
1631013744189280;-24.55065
1631013744204900;-31.83416
1631013744220530;-37.76135
1631013744236150;-42.65263
1631013744251780;-47.30529
1631013744267400;-52.76142
1631013744283030;-60.01137
1631013744298660;-69.7215
1631013744314280;-81.87251
1631013744329910;-95.51874
1631013744345530;-108.6227
1631013744361160;-118.3017
1631013744376780;-121.4858
1631013744392410;-115.8526
1631013744408040;-100.7296
1631013744423660;-77.50394
1631013744439290;-49.29984
1631013744454910;-20.01194
1631013744470540;6.881371
1631013744486160;29.21169
1631013744501790;46.33828
1631013744517420;58.77723
1631013744533040;67.49156
1631013744548670;73.23639
1631013744564290;76.33474
1631013744579920;76.85464
1631013744595540;75.00259
1631013744611170;71.44399
1631013744626800;67.28775
1631013744642420;63.80098
1631013744658050;61.84792
1631013744673670;61.59221
1631013744689300;62.40876
1631013744704920;63.27357
1631013744720550;63.30782
1631013744736180;62.18813
1631013744751800;60.229
1631013744767430;58.08907
1631013744783050;56.3169
1631013744798680;54.93668
1631013744814300;53.4631
1631013744829930;51.09261
1631013744845560;47.15639
1631013744861180;41.43523
1631013744876810;34.24231
1631013744892430;26.29512
1631013744908060;18.39232
1631013744923680;11.15213
1631013744939310;4.764198
1631013744954940;-0.9997883
1631013744970560;-6.691921
1631013744986190;-12.94779
1631013745001810;-20.2212
1631013745017440;-28.60595
1631013745033060;-37.7895
1631013745048690;-47.16058
1631013745064320;-56.00745
1631013745079940;-63.84879
1631013745095570;-70.54648
1631013745111190;-76.46403
1631013745126820;-82.42084
1631013745142440;-89.52851
1631013745158070;-98.88159
1631013745173700;-111.1015
1631013745189320;-125.7862
1631013745204950;-141.2269
1631013745220570;-154.5136
1631013745236200;-162.1862
1631013745251820;-161.2551
1631013745267450;-150.213
1631013745283080;-129.569
1631013745298700;-101.7299
1631013745314330;-70.21519
1631013745329950;-38.60693
1631013745345580;-9.667257
1631013745361200;15.12737
1631013745376830;35.49814
1631013745392460;51.91903
1631013745408080;65.08939
1631013745423710;75.58192
1631013745439330;83.68568
1631013745454960;89.48177
1631013745470580;93.04491
1631013745486210;94.538
1631013745501840;94.34816
1631013745517460;93.01219
1631013745533090;91.10746
1631013745548710;89.11494
1631013745564340;87.35594
1631013745579960;85.96785
1631013745595590;84.92637
1631013745611220;84.11374
1631013745626840;83.32367
1631013745642470;82.31684
1631013745658090;80.85263
1631013745673720;78.73752
1631013745689340;75.85748
1631013745704970;72.16197
1631013745720600;67.64626
1631013745736220;62.30892
1631013745751850;56.19691
1631013745767470;49.38153
1631013745783100;42.05483
1631013745798720;34.46588
1631013745814350;26.90417
1631013745829980;19.59686
1631013745845600;12.61927
1631013745861230;5.879753
1631013745876850;-0.8545761
1631013745892480;-7.835922
1631013745908100;-15.24138
1631013745923730;-23.10024
1631013745939360;-31.26604
1631013745954980;-39.49733
1631013745970610;-47.5083
1631013745986230;-55.10331
1631013746001860;-62.22191
1631013746017490;-68.97702
1631013746033110;-75.65876
1631013746048740;-82.76171
1631013746064360;-90.99347
1631013746079990;-101.1251
1631013746095610;-113.7101
1631013746111240;-128.5719
1631013746126870;-144.3404
1631013746142490;-158.374
1631013746158120;-167.1857
1631013746173740;-167.5072
1631013746189370;-157.3985
1631013746204990;-137.0458
1631013746220620;-108.7949
1631013746236250;-76.36196
1631013746251870;-43.66162
1631013746267500;-13.68752
1631013746283120;12.02562
1631013746298750;33.28223
1631013746314370;50.62934
1631013746330000;64.82014
1631013746345630;76.32538
1631013746361250;85.32307
1631013746376880;91.87784
1631013746392500;96.12004
1631013746408130;98.36159
1631013746423750;99.06621
1631013746439380;98.74783
1631013746455010;97.79274
1631013746470630;96.46198
1631013746486260;94.87859
1631013746501880;93.13187
1631013746517510;91.35804
1631013746533130;89.74246
1631013746548760;88.46339
1631013746564390;87.52721
1631013746580010;86.69957
1631013746595640;85.52236
1631013746611260;83.46138
1631013746626890;80.13969
1631013746642510;75.48949
1631013746658140;69.79186
1631013746673770;63.53421
1631013746689390;57.24958
1631013746705020;51.2511
1631013746720640;45.54375
1631013746736270;39.87006
1631013746751890;33.82596
1631013746767520;27.1084
1631013746783150;19.68273
1631013746798770;11.81711
1631013746814400;3.991589
1631013746830020;-3.342525
1631013746845650;-9.983311
1631013746861270;-16.13652
1631013746876900;-22.31373
1631013746892530;-29.10906
1631013746908150;-36.86672
1631013746923780;-45.45328
1631013746939400;-54.29398
1631013746955030;-62.60934
1631013746970650;-69.81318
1631013746986280;-75.82192
1631013747001910;-81.21672
1631013747017530;-87.09541
1631013747033160;-94.79082
1631013747048780;-105.328
1631013747064410;-118.9344
1631013747080030;-134.5924
1631013747095660;-149.9771
1631013747111290;-161.7562
1631013747126910;-166.4618
1631013747142540;-161.4712
1631013747158160;-145.9571
1631013747173790;-121.2333
1631013747189410;-90.39101
1631013747205040;-57.36936
1631013747220670;-25.82993
1631013747236290;1.7188
1631013747251920;24.22219
1631013747267540;41.83196
1631013747283170;55.32119
1631013747298790;65.52635
1631013747314420;73.00909
1631013747330050;78.0444
1631013747345670;80.82819
1631013747361300;81.71056
1631013747376920;81.25436
1631013747392550;80.22859
1631013747408170;79.33363
1631013747423800;78.93037
1631013747439430;78.94547
1631013747455050;78.92758
1631013747470680;78.32726
1631013747486300;76.80963
1631013747501930;74.42667
1631013747517550;71.59541
1631013747533180;68.85397
1631013747548810;66.49337
1631013747564430;64.32676
1631013747580060;61.70697
1631013747595680;57.80816
1631013747611310;52.03056
1631013747626930;44.33371
1631013747642560;35.35033
1631013747658190;26.07928
1631013747673810;17.53752
1631013747689440;10.23926
1631013747705060;4.038853
1631013747720690;-1.796135
1631013747736310;-8.202778
1631013747751940;-15.88188
1631013747767570;-24.94708
1631013747783190;-34.85978
1631013747798820;-44.71445
1631013747814440;-53.62274
1631013747830070;-61.17052
1631013747845690;-67.52917
1631013747861320;-73.4622
1631013747876950;-80.0929
1631013747892570;-88.56886
1631013747908200;-99.76065
1631013747923820;-113.9522
1631013747939450;-130.5686
1631013747955070;-147.9289
1631013747970700;-163.2976
1631013747986330;-173.2589
1631013748001950;-174.5384
1631013748017580;-165.0586
1631013748033200;-144.7682
1631013748048830;-115.8965
1631013748064450;-82.36325
1631013748080080;-48.62096
1631013748095710;-18.33774
1631013748111330;6.382439
1631013748126960;25.08887
1631013748142580;38.43031
1631013748158210;47.37305
1631013748173830;52.66585
1631013748189460;54.79594
1631013748205090;54.25383
1631013748220710;51.88599
1631013748236340;48.94656
1631013748251960;46.8409
1631013748267590;46.59676
1631013748283220;48.49709
1631013748298840;52.00648
1631013748314470;56.15675
1631013748330090;60.00723
1631013748345720;63.05879
1631013748361340;65.32585
1631013748376970;67.0807
1631013748392600;68.53625
1631013748408220;69.5558
1631013748423850;69.72618
1631013748439470;68.58519
1631013748455100;65.97389
1631013748470720;62.20331
1631013748486350;57.944
1631013748501980;53.96419
1631013748517600;50.7319
1631013748533230;48.21632
1631013748548850;45.82526
1631013748564480;42.66791
1631013748580100;37.82864
1631013748595730;30.76102
1631013748611360;21.46298
1631013748626980;10.48691
1631013748642610;-1.230804
1631013748658230;-12.73074
1631013748673860;-23.40442
1631013748689480;-33.21416
1631013748705110;-42.72437
1631013748720740;-52.92384
1631013748736360;-64.90236
1631013748751990;-79.39113
1631013748767610;-96.3166
1631013748783240;-114.4397
1631013748798860;-131.2533
1631013748814490;-143.3362
1631013748830120;-147.1561
1631013748845740;-140.1922
1631013748861370;-121.907
1631013748876990;-94.14302
1631013748892620;-60.63892
1631013748908240;-25.89821
1631013748923870;6.167587
1631013748939500;33.18994
1631013748955120;54.51736
1631013748970750;70.77492
1631013748986370;82.97762
1631013749002000;91.96591
1631013749017620;98.10724
1631013749033250;101.5461
1631013749048880;102.4888
1631013749064500;101.4489
1631013749080130;99.21153
1631013749095750;96.62065
1631013749111380;94.33484
1631013749127000;92.62384
1631013749142630;91.43419
1631013749158260;90.52222
1631013749173880;89.6546
1631013749189510;88.76949
1631013749205130;87.93802
1631013749220760;87.26082
1631013749236380;86.64755
1631013749252010;85.77925
1631013749267640;84.09341
1631013749283260;81.09203
1631013749298890;76.51395
1631013749314510;70.47701
1631013749330140;63.43765
1631013749345760;55.93704
1631013749361390;48.38647
1631013749377020;40.89426
1631013749392640;33.30798
1631013749408270;25.45105
1631013749423890;17.30272
1631013749439520;9.175674
1631013749455140;1.613907
1631013749470770;-4.863266
1631013749486400;-10.0929
1631013749502020;-14.42255
1631013749517650;-18.69872
1631013749533270;-23.92166
1631013749548900;-30.7803
1631013749564520;-39.39793
1631013749580150;-49.22771
1631013749595780;-59.36996
1631013749611400;-68.94756
1631013749627030;-77.50813
1631013749642650;-85.2057
1631013749658280;-92.7361
1631013749673900;-101.1472
1631013749689530;-111.4789
1631013749705160;-124.439
1631013749720780;-139.9288
1631013749736410;-156.6827
1631013749752030;-172.1376
1631013749767660;-182.8388
1631013749783280;-185.2762
1631013749798910;-177.0273
1631013749814540;-157.707
1631013749830160;-129.1721
1631013749845790;-95.05397
1631013749861410;-59.59592
1631013749877040;-26.41609
1631013749892660;2.308533
1631013749908290;25.99625
1631013749923920;45.19347
1631013749939540;60.91989
1631013749955170;74.00061
1631013749970790;84.83186
1631013749986420;93.42064
1631013750002040;99.65091
1631013750017670;103.537
1631013750033300;105.3383
1631013750048920;105.5431
1631013750064550;104.63
1631013750080170;102.9848
1631013750095800;100.7899
1631013750111420;98.23161
1631013750127050;95.5795
1631013750142680;93.29314
1631013750158300;91.89217
1631013750173930;91.64571
1631013750189550;92.31242
1631013750205180;93.08124
1631013750220800;92.79668
1631013750236430;90.4007
1631013750252060;85.39992
1631013750267680;78.06851
1631013750283310;69.28784
1631013750298930;60.18179
1631013750314560;51.6102
1631013750330180;43.9238
1631013750345810;36.89142
1631013750361440;30.00874
1631013750377060;22.7776
1631013750392690;15.00395
1631013750408310;6.900894
1631013750423940;-1.031616
1631013750439560;-8.171494
1631013750455190;-14.08487
1631013750470820;-18.72658
1631013750486440;-22.51151
1631013750502070;-26.21999
1631013750517690;-30.72963
1631013750533320;-36.62662
1631013750548940;-43.9527
1631013750564570;-52.1122
1631013750580200;-60.14007
1631013750595820;-67.18388
1631013750611450;-72.88498
1631013750627070;-77.69329
1631013750642700;-82.72611
1631013750658320;-89.43102
1631013750673950;-99.11771
1631013750689580;-112.4328
1631013750705200;-128.9819
1631013750720830;-147.092
1631013750736450;-163.9195
1631013750752080;-175.8623
1631013750767700;-179.4689
1631013750783330;-172.4332
1631013750798960;-154.4103
1631013750814580;-127.2755
1631013750830210;-94.60499
1631013750845830;-60.61271
1631013750861460;-28.96544
1631013750877090;-1.921509
1631013750892710;19.86377
1631013750908340;36.92084
1631013750923960;50.32322
1631013750939590;61.01691
1631013750955210;69.55084
1631013750970840;76.07394
1631013750986470;80.56712
1631013751002090;83.09703
1631013751017720;83.94517
1631013751033340;83.62991
1631013751048970;82.69663
1631013751064590;81.54794
1631013751080220;80.3371
1631013751095850;78.97591
1631013751111470;77.34352
1631013751127100;75.42588
1631013751142720;73.40582
1631013751158350;71.48048
1631013751173970;69.62121
1631013751189600;67.40057
1631013751205230;64.07787
1631013751220850;58.89188
1631013751236480;51.5131
1631013751252100;42.30911
1631013751267730;32.24396
1631013751283350;22.48169
1631013751298980;13.79362
1631013751314610;6.204849
1631013751330230;-0.9975357
1631013751345860;-8.786827
1631013751361480;-17.83273
1631013751377110;-28.04281
1631013751392730;-38.61115
1631013751408360;-48.38999
1631013751423990;-56.51896
1631013751439610;-62.89335
1631013751455240;-68.26717
1631013751470860;-73.95443
1631013751486490;-81.33721
1631013751502110;-91.3381
1631013751517740;-104.0809
1631013751533370;-118.691
1631013751548990;-133.2972
1631013751564620;-145.1845
1631013751580240;-151.2449
1631013751595870;-148.6926
1631013751611490;-135.9214
1631013751627120;-113.2241
1631013751642750;-82.93034
1631013751658370;-48.89174
1631013751674000;-15.32635
1631013751689620;14.34602
1631013751705250;38.33138
1631013751720870;56.52061
1631013751736500;69.92622
1631013751752130;79.9209
1631013751767750;87.55707
1631013751783380;93.43951
1631013751799000;97.89961
1631013751814630;101.3013
1631013751830250;104.1897
1631013751845880;107.1962
1631013751861510;110.7679
1631013751877130;114.9397
1631013751892760;119.3487
1631013751908380;123.3477
1631013751924010;126.351
1631013751939630;128.0503
1631013751955260;128.4762
1631013751970890;127.9171
1631013751986510;126.6595
1631013752002140;124.8418
1631013752017760;122.3519
1631013752033390;119.0034
1631013752049010;114.653
1631013752064640;109.3574
1631013752080270;103.3514
1631013752095890;96.88046
1631013752111520;89.97456
1631013752127140;82.3665
1631013752142770;73.5117
1631013752158390;62.83131
1631013752174020;50.01163
1631013752189650;35.13753
1631013752205270;18.70291
1631013752220900;1.397587
1631013752236520;-16.16947
1631013752252150;-33.66441
1631013752267770;-51.09535
1631013752283400;-68.80337
1631013752299030;-87.31726
1631013752314650;-107.1213
1631013752330280;-128.2858
1631013752345900;-150.0381
1631013752361530;-170.4908
1631013752377150;-186.8712
1631013752392780;-196.1075
1631013752408410;-195.9063
1631013752424030;-185.634
1631013752439660;-166.6101
1631013752455280;-141.7086
1631013752470910;-114.3508
1631013752486530;-87.43835
1631013752502160;-62.65036
1631013752517790;-40.4342
1631013752533410;-20.46599
1631013752549040;-2.286968
1631013752564660;14.2671
1631013752580290;28.94764
1631013752595910;41.2955
1631013752611540;50.89482
1631013752627170;57.57318
1631013752642790;61.48312
1631013752658420;63.02804
1631013752674040;62.76379
1631013752689670;61.21597
1631013752705290;58.80411
1631013752720920;55.82516
1631013752736550;52.53263
1631013752752170;49.17657
1631013752767800;45.98431
1631013752783420;43.05412
1631013752799050;40.23721
1631013752814670;37.11583
1631013752830300;33.13741
1631013752845930;27.86187
1631013752861550;21.22882
1631013752877180;13.60152
1631013752892800;5.664688
1631013752908430;-1.915169
1631013752924050;-8.822716
1631013752939680;-15.21968
1631013752955310;-21.6314
1631013752970930;-28.64816
1631013752986560;-36.56476
1631013753002180;-45.20859
1631013753017810;-53.98286
1631013753033430;-62.12647
1631013753049060;-69.10367
1631013753064690;-74.85985
1631013753080310;-79.96109
1631013753095940;-85.43425
1631013753111560;-92.47124
1631013753127190;-101.9775
1631013753142820;-114.1123
1631013753158440;-127.9382
1631013753174070;-141.3454
1631013753189690;-151.3479
1631013753205320;-154.8095
1631013753220940;-149.325
1631013753236570;-134.1215
1631013753252200;-110.3521
1631013753267820;-80.87913
1631013753283450;-49.38057
1631013753299070;-19.33033
1631013753314700;6.808205
1631013753330320;27.93268
1631013753345950;44.11909
1631013753361580;56.08118
1631013753377200;64.65368
1631013753392830;70.47855
1631013753408450;73.94628
1631013753424080;75.31346
1631013753439700;74.88551
1631013753455330;73.10397
1631013753470960;70.54285
1631013753486580;67.80767
1631013753502210;65.39952
1631013753517830;63.64079
1631013753533460;62.60296
1631013753549080;62.09218
1631013753564710;61.73223
1631013753580340;61.04272
1631013753595960;59.57996
1631013753611590;57.05196
1631013753627210;53.40993
1631013753642840;48.83961
1631013753658460;43.6713
1631013753674090;38.23323
1631013753689720;32.68156
1631013753705340;26.93318
1631013753720970;20.75995
1631013753736590;13.91022
1631013753752220;6.289673
1631013753767840;-1.968285
1631013753783470;-10.52705
1631013753799100;-18.97758
1631013753814720;-26.97566
1631013753830350;-34.38714
1631013753845970;-41.31013
1631013753861600;-48.11987
1631013753877220;-55.4508
1631013753892850;-64.10349
1631013753908480;-74.7916
1631013753924100;-87.74961
1631013753939730;-102.2551
1631013753955350;-116.3862
1631013753970980;-127.2408
1631013753986600;-131.591
1631013754002230;-126.9754
1631013754017860;-112.6104
1631013754033480;-89.81767
1631013754049110;-61.61296
1631013754064730;-31.7441
1631013754080360;-3.470173
1631013754095980;21.21386
1631013754111610;41.72659
1631013754127240;58.49697
1631013754142860;72.24324
1631013754158490;83.37329
1631013754174110;91.83067
1631013754189740;97.32292
1631013754205360;99.70854
1631013754220990;99.31175
1631013754236620;96.95318
1631013754252240;93.71364
1631013754267870;90.58491
1631013754283490;88.1473
1631013754299120;86.48697
1631013754314740;85.28923
1631013754330370;84.07513
1631013754346000;82.45972
1631013754361620;80.30067
1631013754377250;77.68873
1631013754392870;74.78632
1631013754408500;71.7254
1631013754424120;68.44278
1631013754439750;64.67262
1631013754455380;60.08158
1631013754471000;54.35885
1631013754486630;47.39476
1631013754502250;39.3671
1631013754517880;30.71293
1631013754533500;22.02285
1631013754549130;13.85374
1631013754564760;6.548523
1631013754580380;0.09984589
1631013754596010;-5.821598
1631013754611630;-11.81475
1631013754627260;-18.47357
1631013754642880;-26.15274
1631013754658510;-34.7993
1631013754674140;-43.96484
1631013754689760;-52.95163
1631013754705390;-61.12336
1631013754721010;-68.19958
1631013754736640;-74.40593
1631013754752260;-80.44212
1631013754767890;-87.27978
1631013754783520;-95.89326
1631013754799140;-106.9628
1631013754814770;-120.5866
1631013754830390;-136.0449
1631013754846020;-151.6192
1631013754861640;-164.6858
1631013754877270;-172.1197
1631013754892900;-171.0968
1631013754908520;-159.9641
1631013754924150;-138.9753
1631013754939770;-110.3561
1631013754955400;-77.68769
1631013754971020;-44.86258
1631013754986650;-14.94514
1631013755002280;10.47863
1631013755017900;31.33433
1631013755033530;48.50995
1631013755049150;63.09459
1631013755064780;75.79109
1631013755080400;86.6857
1631013755096030;95.41217
1631013755111660;101.5218
1631013755127280;104.8822
1631013755142910;105.8041
1631013755158530;104.9772
1631013755174160;103.2069
1631013755189780;101.1187
1631013755205410;98.995
1631013755221040;96.83553
1631013755236660;94.5175
1631013755252290;92.03184
1631013755267910;89.52501
1631013755283540;87.19896
1631013755299170;85.11699
1631013755314790;83.01406
1631013755330420;80.37765
1631013755346040;76.65752
1631013755361670;71.55895
1631013755377290;65.18199
1631013755392920;58.01444
1631013755408550;50.64112
1631013755424170;43.40853
1631013755439800;36.31841
1631013755455420;29.06375
1631013755471050;21.33339
1631013755486670;13.08727
1631013755502300;4.65892
1631013755517930;-3.434128
1631013755533550;-10.77875
1631013755549180;-17.38037
1631013755564800;-23.67249
1631013755580430;-30.29858
1631013755596050;-37.76553
1631013755611680;-46.13167
1631013755627310;-54.96838
1631013755642930;-63.56611
1631013755658560;-71.32874
1631013755674180;-78.03596
1631013755689810;-84.00371
1631013755705430;-90.00913
1631013755721060;-97.08275
1631013755736690;-106.2374
1631013755752310;-118.1091
1631013755767940;-132.5081
1631013755783560;-148.0642
1631013755799190;-162.188
1631013755814810;-171.4466
1631013755830440;-172.4883
1631013755846070;-163.2061
1631013755861690;-143.5351
1631013755877320;-115.6275
1631013755892940;-83.19711
1631013755908570;-50.27311
1631013755924190;-20.0469
1631013755939820;5.871262
1631013755955450;27.3707
1631013755971070;45.27159
1631013755986700;60.45825
1631013756002320;73.38274
1631013756017950;83.93457
1631013756033570;91.71797
1631013756049200;96.48637
1631013756064830;98.46843
1631013756080450;98.38574
1631013756096080;97.14687
1631013756111700;95.56989
1631013756127330;94.03946
1631013756142950;92.53487
1631013756158580;90.80587
1631013756174210;88.6793
1631013756189830;86.21362
1631013756205460;83.66254
1631013756221080;81.25459
1631013756236710;78.97542
1631013756252330;76.52121
1631013756267960;73.41109
1631013756283590;69.26842
1631013756299210;63.97261
1631013756314840;57.67626
1631013756330460;50.70044
1631013756346090;43.32444
1631013756361710;35.74888
1631013756377340;28.08887
1631013756392970;20.50411
1631013756408590;13.2167
1631013756424220;6.480415
1631013756439840;0.4552307
1631013756455470;-4.994476
1631013756471090;-10.27209
1631013756486720;-15.94948
1631013756502350;-22.48363
1631013756517970;-29.99062
1631013756533600;-38.12671
1631013756549220;-46.20304
1631013756564850;-53.53457
1631013756580470;-59.72448
1631013756596100;-64.97247
1631013756611730;-70.00001
1631013756627350;-75.81042
1631013756642980;-83.4318
1631013756658600;-93.53587
1631013756674230;-106.1917
1631013756689850;-120.6496
1631013756705480;-135.2124
1631013756721110;-147.3137
1631013756736730;-153.9744
1631013756752360;-152.5069
1631013756767980;-141.3765
1631013756783610;-120.923
1631013756799230;-93.35549
1631013756814860;-62.21509
1631013756830490;-31.26967
1631013756846110;-3.497971
1631013756861740;19.61551
1631013756877360;37.93986
1631013756892990;52.23187
1631013756908610;63.33359
1631013756924240;71.71964
1631013756939870;77.47535
1631013756955490;80.53863
1631013756971120;81.11763
1631013756986740;79.86574
1631013757002370;77.79548
1631013757017990;75.91799
1631013757033620;74.81982
1631013757049250;74.51495
1631013757064870;74.45873
1631013757080500;73.98554
1631013757096120;72.6876
1631013757111750;70.65367
1631013757127370;68.40963
1631013757143000;66.49422
1631013757158630;65.10594
1631013757174250;63.87794
1631013757189880;62.00197
1631013757205500;58.61456
1631013757221130;53.25082
1631013757236750;46.07385
1631013757252380;37.83204
1631013757268010;29.53716
1631013757283630;22.05248
1631013757299260;15.74448
1631013757314880;10.39043
1631013757330510;5.348785
1631013757346130;-0.2001419
1631013757361760;-6.854546
1631013757377390;-14.76278
1631013757393010;-23.56588
1631013757408640;-32.51247
1631013757424260;-40.78677
1631013757439890;-47.82592
1631013757455510;-53.59191
1631013757471140;-58.59753
1631013757486770;-63.73166
1631013757502390;-70.01817
1631013757518020;-78.34873
1631013757533640;-89.20838
1631013757549270;-102.429
1631013757564890;-116.9488
1631013757580520;-130.6939
1631013757596150;-140.8017
1631013757611770;-144.2161
1631013757627400;-138.6244
1631013757643020;-123.3087
1631013757658650;-99.55939
1631013757674270;-70.36902
1631013757689900;-39.50218
1631013757705530;-10.37482
1631013757721150;14.84725
1631013757736780;35.45481
1631013757752400;51.82806
1631013757768030;64.75519
1631013757783650;74.8466
1631013757799280;82.29325
1631013757814910;87.05939
1631013757830530;89.18378
1631013757846160;89.05316
1631013757861780;87.41023
1631013757877410;85.16086
1631013757893030;83.09533
1631013757908660;81.62514
1631013757924290;80.77977
1631013757939910;80.32259
1631013757955540;79.98476
1631013757971160;79.63039
1631013757986790;79.30399
1631013758002420;79.08931
1631013758018040;78.89127
1631013758033670;78.36256
1631013758049290;76.94821
1631013758064920;74.12057
1631013758080540;69.61774
1631013758096170;63.62592
1631013758111800;56.68881
1631013758127420;49.53297
1631013758143050;42.75145
1631013758158670;36.60125
1631013758174300;30.97673
1631013758189920;25.48604
1631013758205550;19.67177
1631013758221180;13.20865
1631013758236800;6.050995
1631013758252430;-1.562912
1631013758268050;-9.157959
1631013758283680;-16.17619
1631013758299300;-22.29033
1631013758314930;-27.49225
1631013758330560;-32.24208
1631013758346180;-37.27101
1631013758361810;-43.30496
1631013758377430;-50.68927
1631013758393060;-59.20502
1631013758408680;-68.10423
1631013758424310;-76.43158
1631013758439940;-83.4879
1631013758455560;-89.16412
1631013758471190;-94.07501
1631013758486810;-99.41188
1631013758502440;-106.551
1631013758518060;-116.5618
1631013758533690;-129.7544
1631013758549320;-145.3155
1631013758564940;-161.1746
1631013758580570;-174.2521
1631013758596190;-181.0471
1631013758611820;-178.5929
1631013758627440;-165.3845
1631013758643070;-142.0016
1631013758658700;-111.0315
1631013758674320;-76.3922
1631013758689950;-42.14757
1631013758705570;-11.43727
1631013758721200;14.19612
1631013758736820;34.72903
1631013758752450;51.13481
1631013758768080;64.53929
1631013758783700;75.66945
1631013758799330;84.67339
1631013758814950;91.33839
1631013758830580;95.5154
1631013758846200;97.40599
1631013758861830;97.63493
1631013758877460;97.00041
1631013758893080;96.20502
1631013758908710;95.56013
1631013758924330;95.02055
1631013758939960;94.34691
1631013758955580;93.40428
1631013758971210;92.31429
1631013758986840;91.39432
1631013759002460;90.91414
1631013759018090;90.84444
1631013759033710;90.78125
1631013759049340;90.01076
1631013759064960;87.87669
1631013759080590;84.04993
1631013759096220;78.71033
1631013759111840;72.43242
1631013759127470;65.98056
1631013759143090;59.94701
1631013759158720;54.58466
1631013759174340;49.75398
1631013759189970;45.05721
1631013759205600;40.10632
1631013759221220;34.71661
1631013759236850;28.97449
1631013759252470;23.20323
1631013759268100;17.74149
1631013759283720;12.81816
1631013759299350;8.391754
1631013759314980;4.201218
1631013759330600;-0.1676178
1631013759346230;-5.012527
1631013759361850;-10.43982
1631013759377480;-16.27835
1631013759393100;-22.15297
1631013759408730;-27.67746
1631013759424360;-32.66286
1631013759439980;-37.23654
1631013759455610;-41.81879
1631013759471230;-46.97742
1631013759486860;-53.15958
1631013759502480;-60.50575
1631013759518110;-68.71495
1631013759533740;-77.09898
1631013759549360;-84.88441
1631013759564990;-91.51335
1631013759580610;-96.89285
1631013759596240;-101.5729
1631013759611860;-106.613
1631013759627490;-113.3508
1631013759643120;-122.9405
1631013759658740;-135.7558
1631013759674370;-150.9001
1631013759689990;-166.0279
1631013759705620;-177.6672
1631013759721240;-182.0873
1631013759736870;-176.4444
1631013759752500;-159.7477
1631013759768120;-133.2719
1631013759783750;-100.1551
1631013759799370;-64.51085
1631013759815000;-30.23325
1631013759830620;-0.1229706
1631013759846250;24.52315
1631013759861880;43.73607
1631013759877500;58.36914
1631013759893130;69.5047
1631013759908750;78.04538
1631013759924380;84.53027
1631013759940000;89.21146
1631013759955630;92.18633
1631013759971260;93.57355
1631013759986880;93.66684
1631013760002510;92.87819
1631013760018130;91.63969
1631013760033760;90.30573
1631013760049380;89.06215
1631013760065010;87.96925
1631013760080640;87.07069
1631013760096260;86.41093
1631013760111890;86.02779
1631013760127510;85.87207
1631013760143140;85.7095
1631013760158770;85.14293
1631013760174390;83.67233
1631013760190020;80.9017
1631013760205640;76.68253
1631013760221270;71.21031
1631013760236890;64.9498
1631013760252520;58.48618
1631013760268150;52.29269
1631013760283770;46.61069
1631013760299400;41.41057
1631013760315020;36.47675
1631013760330650;31.56007
1631013760346270;26.48141
1631013760361900;21.1667
1631013760377530;15.64355
1631013760393150;9.961731
1631013760408780;4.197083
1631013760424400;-1.600342
1631013760440030;-7.339844
1631013760455650;-12.8786
1631013760471280;-18.08896
1631013760486910;-22.93982
1631013760502530;-27.61159
1631013760518160;-32.48608
1631013760533780;-37.97224
1631013760549410;-44.34651
1631013760565030;-51.60153
1631013760580660;-59.3847
1631013760596290;-67.1676
1631013760611910;-74.45251
1631013760627540;-80.99748
1631013760643160;-86.9377
1631013760658790;-92.7603
1631013760674410;-99.27443
1631013760690040;-107.4434
1631013760705670;-118.1064
1631013760721290;-131.5392
1631013760736920;-146.9574
1631013760752540;-162.2365
1631013760768170;-174.106
1631013760783790;-178.9217
1631013760799420;-173.8152
1631013760815050;-157.7534
1631013760830670;-132.0531
1631013760846300;-99.98651
1631013760861920;-65.75977
1631013760877550;-33.24413
1631013760893170;-5.025635
1631013760908800;17.86032
1631013760924430;35.64494
1631013760940050;49.13908
1631013760955680;59.13779
1631013760971300;66.12221
1631013760986930;70.32356
1631013761002550;71.96338
1631013761018180;71.49414
1631013761033810;69.65604
1631013761049430;67.34067
1631013761065060;65.3073
1631013761080680;64.00154
1631013761096310;63.49779
1631013761111930;63.58725
1631013761127560;64.07224
1631013761143190;64.8755
1631013761158810;66.10779
1631013761174440;67.91524
1631013761190060;70.23412
1631013761205690;72.63033
1631013761221310;74.31114
1631013761236940;74.39957
1631013761252570;72.22151
1631013761268190;67.63776
1631013761283820;61.06984
1631013761299440;53.36179
1631013761315070;45.43945
1631013761330690;37.96582
1631013761346320;31.08389
1631013761361950;24.46227
1631013761377570;17.49098
1631013761393200;9.63623
1631013761408820;0.7360382
1631013761424450;-8.819504
1631013761440070;-18.18787
1631013761455700;-26.3257
1631013761471330;-32.41339
1631013761486950;-36.19067
1631013761502580;-38.04386
1631013761518200;-38.8584
1631013761533830;-39.64395
1631013761549450;-41.1177
1631013761565080;-43.46501
1631013761580710;-46.3933
1631013761596330;-49.36478
1631013761611960;-51.95546
1631013761627580;-54.07785
1631013761643210;-56.04897
1631013761658830;-58.5106
1631013761674460;-62.29113
1631013761690090;-68.2675
1631013761705710;-77.06609
1631013761721340;-88.78144
1631013761736960;-102.4933
1631013761752590;-116.0926
1631013761768210;-126.4621
1631013761783840;-130.1913
1631013761799470;-124.6773
1631013761815090;-109.1057
1631013761830720;-84.84789
1631013761846340;-55.07149
1631013761861970;-23.753
1631013761877590;5.561901
1631013761893220;30.55616
1631013761908850;50.3525
1631013761924470;65.06541
1631013761940100;75.21373
1631013761955720;81.241
1631013761971350;83.4239
1631013761986970;82.12343
1631013762002600;78.04655
1631013762018230;72.34396
1631013762033850;66.38903
1631013762049480;61.37578
1631013762065100;57.95383
1631013762080730;56.07245
1631013762096350;55.14174
1631013762111980;54.45055
1631013762127610;53.51122
1631013762143230;52.27918
1631013762158860;51.04649
1631013762174480;50.10876
1631013762190110;49.47146
1631013762205730;48.75804
1631013762221360;47.37815
1631013762236990;44.87253
1631013762252610;41.21759
1631013762268240;36.85438
1631013762283860;32.46455
1631013762299490;28.55802
1631013762315110;25.17021
1631013762330740;21.7808
1631013762346370;17.63678
1631013762361990;12.17123
1631013762377620;5.344254
1631013762393240;-2.275978
1631013762408870;-9.789204
1631013762424490;-16.37884
1631013762440120;-21.67326
1631013762455750;-25.88289
1631013762471370;-29.76006
1631013762487000;-34.32331
1631013762502620;-40.63752
1631013762518250;-49.51753
1631013762533870;-61.20392
1631013762549500;-75.0136
1631013762565130;-89.09804
1631013762580750;-100.6016
1631013762596380;-106.2474
1631013762612000;-103.3703
1631013762627630;-90.91431
1631013762643260;-69.90335
1631013762658880;-43.26888
1631013762674510;-14.88385
1631013762690130;11.61827
1631013762705760;33.78883
1631013762721380;50.65674
1631013762737010;62.43941
1631013762752640;69.92576
1631013762768260;73.89257
1631013762783890;74.91109
1631013762799510;73.41745
1631013762815140;69.98923
1631013762830760;65.51269
1631013762846390;61.10099
1631013762862020;57.86582
1631013762877640;56.5401
1631013762893270;57.20808
1631013762908890;59.33367
1631013762924520;61.99772
1631013762940140;64.31268
1631013762955770;65.79579
1631013762971400;66.45598
1631013762987020;66.61283
1631013763002650;66.56451
1631013763018270;66.25452
1631013763033900;65.18977
1631013763049520;62.59533
1631013763065150;57.76417
1631013763080780;50.39378
1631013763096400;40.80667
1631013763112030;29.84586
1631013763127650;18.59108
1631013763143280;8.003151
1631013763158900;-1.440773
1631013763174530;-9.920082
1631013763190160;-18.1104
1631013763205780;-26.8465
1631013763221410;-36.68154
1631013763237030;-47.52968
1631013763252660;-58.63599
1631013763268280;-68.85674
1631013763283910;-77.1722
1631013763299540;-83.23796
1631013763315160;-87.64204
1631013763330790;-91.79117
1631013763346410;-97.51938
1631013763362040;-106.4654
1631013763377660;-119.4653
1631013763393290;-136.1169
1631013763408920;-154.5587
1631013763424540;-171.6845
1631013763440170;-183.7367
1631013763455790;-187.2543
1631013763471420;-180.0167
1631013763487040;-161.7104
1631013763502670;-134.0873
1631013763518300;-100.428
1631013763533920;-64.6817
1631013763549550;-30.41208
1631013763565170;-0.1094666
1631013763580800;25.10248
1631013763596420;45.29295
1631013763612050;61.26263
1631013763627680;74.00044
1631013763643300;84.32758
1631013763658930;92.73546
1631013763674550;99.40434
1631013763690180;104.3951
1631013763705800;107.7997
1631013763721430;109.8408
1631013763737060;110.791
1631013763752680;110.8652
1631013763768310;110.0938
1631013763783930;108.3605
1631013763799560;105.6096
1631013763815180;102.0138
1631013763830810;98.02498
1631013763846440;94.17526
1631013763862060;90.74915
1631013763877690;87.54532
1631013763893310;83.88101
1631013763908940;78.90309
1631013763924560;72.02095
1631013763940190;63.27921
1631013763955820;53.37019
1631013763971440;43.35713
1631013763987070;34.23735
1631013764002690;26.47821
1631013764018320;19.86798
1631013764033940;13.5986
1631013764049570;6.641083
1631013764065200;-1.884247
1631013764080820;-12.28464
1631013764096450;-24.18372
1631013764112070;-36.66107
1631013764127700;-48.57831
1631013764143320;-59.09476
1631013764158950;-67.99774
1631013764174580;-75.83127
1631013764190200;-83.71613
1631013764205830;-93.00424
1631013764221450;-104.7729
1631013764237080;-119.3625
1631013764252700;-136.0269
1631013764268330;-152.7517
1631013764283960;-166.4789
1631013764299580;-173.6739
1631013764315210;-171.2979
1631013764330830;-157.8092
1631013764346460;-133.8549
1631013764362080;-102.1919
1631013764377710;-66.86734
1631013764393340;-32.01468
1631013764408960;-0.7170715
1631013764424590;25.51462
1631013764440210;46.56168
1631013764455840;63.11646
1631013764471460;75.98059
1631013764487090;85.71442
1631013764502720;92.59311
1631013764518340;96.80045
1631013764533970;98.62701
1631013764549590;98.53696
1631013764565220;97.05447
1631013764580840;94.70148
1631013764596470;91.87338
1631013764612100;88.87088
1631013764627720;85.96835
1631013764643350;83.44073
1631013764658970;81.55096
1631013764674600;80.44266
1631013764690220;80.06064
1631013764705850;80.01236
1631013764721480;79.63318
1631013764737100;78.14398
1631013764752730;74.96088
1631013764768350;69.91394
1631013764783980;63.38815
1631013764799600;56.13986
1631013764815230;48.98782
1631013764830860;42.39719
1631013764846480;36.31479
1631013764862110;30.20514
1631013764877730;23.39261
1631013764893360;15.42334
1631013764908980;6.284302
1631013764924610;-3.636505
1631013764940240;-13.82477
1631013764955860;-23.92636
1631013764971490;-33.98343
1631013764987110;-44.45471
1631013765002740;-56.0791
1631013765018370;-69.58273
1631013765033990;-85.28107
1631013765049620;-102.6515
1631013765065240;-120.0397
1631013765080870;-134.6664
1631013765096490;-143.1378
1631013765112120;-142.3847
1631013765127750;-130.7117
1631013765143370;-108.5128
1631013765159000;-78.367
1631013765174620;-44.33981
1631013765190250;-10.82358
1631013765205870;18.6763
1631013765221500;42.29333
1631013765237130;59.82816
1631013765252750;72.22177
1631013765268380;80.72855
1631013765284000;86.25912
1631013765299630;89.12271
1631013765315250;89.27899
1631013765330880;86.79669
1631013765346510;82.25897
1631013765362130;76.84659
1631013765377760;72.01108
1631013765393380;68.90625
1631013765409010;67.94458
1631013765424630;68.63028
1631013765440260;69.85385
1631013765455890;70.39621
1631013765471510;69.43817
1631013765487140;66.76083
1631013765502760;62.63556
1631013765518390;57.49545
1631013765534010;51.63309
1631013765549640;45.08856
1631013765565270;37.67841
1631013765580890;29.24649
1631013765596520;19.81418
1631013765612140;9.656342
1631013765627770;-0.7564087
1631013765643390;-10.93365
1631013765659020;-20.52164
1631013765674650;-29.36707
1631013765690270;-37.52759
1631013765705900;-45.22028
1631013765721520;-52.7236
1631013765737150;-60.42783
1631013765752770;-68.84415
1631013765768400;-78.63016
1631013765784030;-90.38803
1631013765799650;-104.3333
1631013765815280;-119.8067
1631013765830900;-134.9671
1631013765846530;-146.8951
1631013765862150;-152.2071
1631013765877780;-148.1403
1631013765893410;-133.5286
1631013765909030;-109.4032
1631013765924660;-78.76056
1631013765940280;-45.6618
1631013765955910;-13.95703
1631013765971530;13.72055
1631013765987160;36.38168
1631013766002790;54.39359
1631013766018410;68.72125
1631013766034040;80.17307
1631013766049660;88.99463
1631013766065290;94.98438
1631013766080910;97.86798
1631013766096540;97.76822
1631013766112170;95.38028
1631013766127790;91.81543
1631013766143420;88.17188
1631013766159040;85.12427
1631013766174670;82.74084
1631013766190290;80.62323
1631013766205920;78.30072
1631013766221550;75.59811
1631013766237170;72.75339
1631013766252800;70.23196
1631013766268420;68.38809
1631013766284050;67.1051
1631013766299670;65.7645
1631013766315300;63.39825
1631013766330930;59.11304
1631013766346550;52.48532
1631013766362180;43.80252
1631013766377800;33.93839
1631013766393430;24.05792
1631013766409050;15.18042
1631013766424680;7.745636
1631013766440310;1.513306
1631013766455930;-4.379303
1631013766471560;-11.01175
1631013766487180;-19.22531
1631013766502810;-29.24295
1631013766518430;-40.56448
1631013766534060;-52.15973
1631013766549690;-62.87152
1631013766565310;-71.91611
1631013766580940;-79.18036
1631013766596560;-85.34103
1631013766612190;-91.66425
1631013766627810;-99.6301
1631013766643440;-110.5035
1631013766659070;-124.8037
1631013766674690;-141.946
1631013766690320;-159.9797
1631013766705940;-175.8138
1631013766721570;-185.7632
1631013766737190;-186.4884
1631013766752820;-176.0729
1631013766768450;-154.6694
1631013766784070;-124.5963
1631013766799700;-89.6297
1631013766815320;-53.88223
1631013766830950;-20.63116
1631013766846570;8.344238
1631013766862200;32.75842
1631013766877830;53.27487
1631013766893450;70.69899
1631013766909080;85.50105
1631013766924700;97.61687
1631013766940330;106.7751
1631013766955950;112.8068
1631013766971580;115.9334
1631013766987210;116.7663
1631013767002830;116.1167
1631013767018460;114.6979
1631013767034080;112.9245
1631013767049710;110.9728
1631013767065330;108.8282
1631013767080960;106.5524
1631013767096590;104.3169
1631013767112210;102.3686
1631013767127840;100.8767
1631013767143460;99.72714
1631013767159090;98.49724
1631013767174710;96.49893
1631013767190340;93.10959
1631013767205970;87.98233
1631013767221590;81.2868
1631013767237220;73.61749
1631013767252840;65.78474
1631013767268470;58.50658
1631013767284100;52.12395
1631013767299720;46.53203
1631013767315350;41.20172
1631013767330970;35.47728
1631013767346600;28.79776
1631013767362220;20.96777
1631013767377850;12.23151
1631013767393480;3.190063
1631013767409100;-5.379883
1631013767424730;-12.88298
1631013767440350;-19.11327
1631013767455980;-24.41948
1631013767471600;-29.56723
1631013767487230;-35.45232
1631013767502860;-42.72725
1631013767518480;-51.51088
1631013767534110;-61.36867
1631013767549730;-71.43091
1631013767565360;-80.78801
1631013767580980;-88.83365
1631013767596610;-95.50002
1631013767612240;-101.3291
1631013767627860;-107.3249
1631013767643490;-114.7206
1631013767659110;-124.6243
1631013767674740;-137.6467
1631013767690360;-153.4109
1631013767705990;-170.2274
1631013767721620;-185.1543
1631013767737240;-194.4614
1631013767752870;-194.7053
1631013767768490;-183.783
1631013767784120;-161.8116
1631013767799740;-131.1476
1631013767815370;-95.73745
1631013767831000;-59.82268
1631013767846620;-26.74008
1631013767862250;1.784454
1631013767877870;25.60687
1631013767893500;45.5097
1631013767909120;62.41309
1631013767924750;76.75372
1631013767940380;88.43842
1631013767956000;97.10866
1631013767971630;102.5582
1631013767987250;105.0561
1631013768002880;105.3171
1631013768018500;104.3089
1631013768034130;102.8684
1631013768049760;101.5116
1631013768065380;100.3652
1631013768081010;99.3738
1631013768096630;98.44478
1631013768112260;97.6026
1631013768127880;96.91724
1631013768143510;96.38241
1631013768159140;95.83335
1631013768174760;94.90948
1631013768190390;93.18968
1631013768206010;90.33496
1631013768221640;86.23367
1631013768237260;81.03677
1631013768252890;75.12189
1631013768268520;68.9696
1631013768284140;63.02302
1631013768299770;57.53328
1631013768315390;52.49982
1631013768331020;47.68577
1631013768346640;42.75092
1631013768362270;37.44806
1631013768377900;31.67054
1631013768393520;25.50587
1631013768409150;19.13022
1631013768424770;12.67033
1631013768440400;6.137276
1631013768456020;-0.5287323
1631013768471650;-7.34903
1631013768487280;-14.21182
1631013768502900;-20.87317
1631013768518530;-27.1255
1631013768534150;-32.95466
1631013768549780;-38.65966
1631013768565400;-44.73756
1631013768581030;-51.63306
1631013768596660;-59.46776
1631013768612280;-67.89029
1631013768627910;-76.22491
1631013768643530;-83.7378
1631013768659160;-90.0519
1631013768674780;-95.39705
1631013768690410;-100.5824
1631013768706040;-106.8274
1631013768721660;-115.3469
1631013768737290;-126.9546
1631013768752910;-141.5561
1631013768768540;-157.88
1631013768784160;-173.3915
1631013768799790;-184.671
1631013768815420;-188.1734
1631013768831040;-181.3366
1631013768846670;-163.4794
1631013768862290;-136.1533
1631013768877920;-102.7444
1631013768893540;-67.43414
1631013768909170;-34.01094
1631013768924800;-4.920601
1631013768940420;18.94276
1631013768956050;37.92134
1631013768971670;52.89679
1631013768987300;64.68896
1631013769002920;73.80885
1631013769018550;80.40697
1631013769034180;84.57598
1631013769049800;86.52067
1631013769065430;86.66506
1631013769081050;85.64064
1631013769096680;84.10465
1631013769112300;82.57416
1631013769127930;81.25935
1631013769143560;80.14275
1631013769159180;79.02954
1631013769174810;77.78167
1631013769190430;76.37708
1631013769206060;74.9276
1631013769221680;73.50191
1631013769237310;71.98796
1631013769252940;70.04904
1631013769268560;67.20799
1631013769284190;63.15257
1631013769299810;57.84322
1631013769315440;51.59817
1631013769331060;44.94813
1631013769346690;38.36603
1631013769362320;32.05652
1631013769377940;25.90205
1631013769393570;19.63755
1631013769409190;13.03183
1631013769424820;6.131714
1631013769440440;-0.7937546
1631013769456070;-7.363495
1631013769471700;-13.37598
1631013769487320;-18.96873
1631013769502950;-24.61053
1631013769518570;-30.88699
1631013769534200;-38.16278
1631013769549820;-46.33369
1631013769565450;-54.81125
1631013769581080;-62.71864
1631013769596700;-69.33127
1631013769612330;-74.42935
1631013769627950;-78.51811
1631013769643580;-82.72919
1631013769659200;-88.52193
1631013769674830;-97.16747
1631013769690460;-109.2032
1631013769706080;-123.9326
1631013769721710;-139.212
1631013769737330;-151.6519
1631013769752960;-157.4315
1631013769768580;-153.3818
1631013769784210;-138.1282
1631013769799840;-112.7001
1631013769815460;-80.29745
1631013769831090;-45.30214
1631013769846710;-11.9297
1631013769862340;16.87214
1631013769877970;39.87959
1631013769893590;57.28408
1631013769909220;70.00484
1631013769924840;78.99846
1631013769940470;84.89223
1631013769956090;88.04287
1631013769971720;88.78304
1631013769987350;87.6237
1631013770002970;85.27509
1631013770018600;82.5157
1631013770034220;79.97358
1631013770049850;78.04049
1631013770065470;76.79317
1631013770081100;76.11533
1631013770096730;75.79659
1631013770112350;75.64596
1631013770127980;75.49672
1631013770143600;75.21214
1631013770159230;74.61112
1631013770174850;73.4118
1631013770190480;71.31004
1631013770206110;68.01311
1631013770221730;63.40469
1631013770237360;57.64726
1631013770252980;51.16857
1631013770268610;44.52225
1631013770284230;38.16184
1631013770299860;32.26612
1631013770315490;26.64283
1631013770331110;20.87318
1631013770346740;14.51853
1631013770362360;7.357376
1631013770377990;-0.4475021
1631013770393610;-8.419441
1631013770409240;-16.00684
1631013770424870;-22.81631
1631013770440490;-28.83318
1631013770456120;-34.43835
1631013770471740;-40.24245
1631013770487370;-46.80571
1631013770502990;-54.36375
1631013770518620;-62.69912
1631013770534250;-71.22428
1631013770549870;-79.30157
1631013770565500;-86.54343
1631013770581120;-93.13927
1631013770596750;-99.87485
1631013770612370;-107.9243
1631013770628000;-118.4031
1631013770643630;-131.7559
1631013770659250;-147.3152
1631013770674880;-163.0336
1631013770690500;-175.7085
1631013770706130;-181.6906
1631013770721750;-177.9367
1631013770737380;-163.0667
1631013770753010;-137.8954
1631013770768630;-105.3481
1631013770784260;-69.53694
1631013770799880;-34.57576
1631013770815510;-3.489883
1631013770831130;22.27831
1631013770846760;42.75664
1631013770862390;58.78643
1631013770878010;71.34985
1631013770893640;81.13986
1631013770909260;88.43169
1631013770924890;93.3231
1631013770940510;95.97285
1631013770956140;96.77451
1631013770971770;96.3326
1631013770987390;95.35484
1631013771003020;94.42025
1631013771018640;93.85406
1631013771034270;93.6869
1631013771049890;93.70976
1631013771065520;93.6469
1631013771081150;93.27142
1631013771096770;92.518
1631013771112400;91.46372
1631013771128020;90.19215
1631013771143650;88.71001
1631013771159270;86.82291
1631013771174900;84.23152
1631013771190530;80.64268
1631013771206150;75.93761
1631013771221780;70.28214
1631013771237400;64.11066
1631013771253030;57.92736
1631013771268650;52.07809
1631013771284280;46.62101
1631013771299910;41.28822
1631013771315530;35.6832
1631013771331160;29.44207
1631013771346780;22.43501
1631013771362410;14.79115
1631013771378030;6.828903
1631013771393660;-1.007362
1631013771409290;-8.294724
1631013771424910;-14.71545
1631013771440540;-20.17664
1631013771456160;-24.89483
1631013771471790;-29.45184
1631013771487410;-34.57529
1631013771503040;-40.95182
1631013771518670;-48.85527
1631013771534290;-57.98405
1631013771549920;-67.59239
1631013771565540;-76.75574
1631013771581170;-84.84953
1631013771596790;-91.74898
1631013771612420;-97.94677
1631013771628050;-104.3693
1631013771643670;-112.1505
1631013771659300;-122.29
1631013771674920;-135.2732
1631013771690550;-150.6954
1631013771706170;-166.846
1631013771721800;-180.7962
1631013771737430;-188.7883
1631013771753050;-187.3406
1631013771768680;-174.397
1631013771784300;-150.196
1631013771799930;-117.3664
1631013771815550;-80.12467
1631013771831180;-43.00275
1631013771846810;-9.520466
1631013771862430;18.47549
1631013771878060;40.7955
1631013771893680;58.27126
1631013771909310;71.99498
1631013771924930;82.78
1631013771940560;91.0154
1631013771956190;96.86568
1631013771971810;100.4806
1631013771987440;102.2548
1631013772003060;102.781
1631013772018690;102.7053
1631013772034310;102.5195
1631013772049940;102.4034
1631013772065570;102.2262
1631013772081190;101.7417
1631013772096820;100.7637
1631013772112440;99.3421
1631013772128070;97.7511
1631013772143700;96.328
1631013772159320;95.23608
1631013772174950;94.34834
1631013772190570;93.25624
1631013772206200;91.3866
1631013772221820;88.27486
1631013772237450;83.69431
1631013772253080;77.71975
1631013772268700;70.71953
1631013772284330;63.20449
1631013772299950;55.72145
1631013772315580;48.72398
1631013772331200;42.43832
1631013772346830;36.79713
1631013772362460;31.43719
1631013772378080;25.87044
1631013772393710;19.68549
1631013772409330;12.76532
1631013772424960;5.35358
1631013772440580;-2.023636
1631013772456210;-8.771191
1631013772471840;-14.55394
1631013772487460;-19.43287
1631013772503090;-23.84858
1631013772518710;-28.49879
1631013772534340;-34.02353
1631013772549960;-40.77224
1631013772565590;-48.64115
1631013772581220;-57.15689
1631013772596840;-65.61557
1631013772612470;-73.38393
1631013772628090;-80.14339
1631013772643720;-85.98656
1631013772659340;-91.5094
1631013772674970;-97.64552
1631013772690600;-105.4732
1631013772706220;-115.9389
1631013772721850;-129.3714
1631013772737470;-145.0533
1631013772753100;-160.9555
1631013772768720;-173.8458
1631013772784350;-179.9239
1631013772799980;-175.9551
1631013772815600;-160.3362
1631013772831230;-133.8543
1631013772846850;-99.53732
1631013772862480;-61.81651
1631013772878100;-25.15186
1631013772893730;7.172535
1631013772909360;33.64336
1631013772924980;54.377
1631013772940610;70.37582
1631013772956230;82.69341
1631013772971860;91.93439
1631013772987480;98.17817
1631013773003110;101.3843
1631013773018740;101.8197
1631013773034360;100.262
1631013773049990;97.82062
1631013773065610;95.56931
1631013773081240;94.08397
1631013773096860;93.33896
1631013773112490;92.91733
1631013773128120;92.39951
1631013773143740;91.63039
1631013773159370;90.82439
1631013773174990;90.29099
1631013773190620;90.14037
1631013773206240;90.02843
1631013773221870;89.24472
1631013773237500;86.96909
1631013773253120;82.68085
1631013773268750;76.34079
1631013773284370;68.44429
1631013773300000;59.84601
1631013773315620;51.45654
1631013773331250;43.98579
1631013773346880;37.71519
1631013773362500;32.48498
1631013773378130;27.73884
1631013773393750;22.78438
1631013773409380;17.06255
1631013773425000;10.40545
1631013773440630;3.120316
1631013773456260;-4.144279
1631013773471880;-10.69234
1631013773487510;-16.13264
1631013773503130;-20.55037
1631013773518760;-24.53095
1631013773534380;-28.89665
1631013773550010;-34.34107
1631013773565640;-41.1498
1631013773581260;-49.05772
1631013773596890;-57.39013
1631013773612510;-65.3188
1631013773628140;-72.25092
1631013773643760;-78.07827
1631013773659390;-83.26444
1631013773675020;-88.73811
1631013773690640;-95.61173
1631013773706270;-104.8627
1631013773721890;-116.8477
1631013773737520;-130.9467
1631013773753140;-145.3366
1631013773768770;-157.1137
1631013773784400;-162.8796
1631013773800020;-159.6522
1631013773815650;-145.8956
1631013773831270;-122.1332
1631013773846900;-90.98299
1631013773862520;-56.40515
1631013773878150;-22.56662
1631013773893780;7.278801
1631013773909400;31.39373
1631013773925030;49.5353
1631013773940650;62.38158
1631013773956280;70.82642
1631013773971900;75.52225
1631013773987530;76.83656
1631013774003160;75.16262
1631013774018780;71.22845
1631013774034410;66.22054
1631013774050030;61.55062
1631013774065660;58.41087
1631013774081280;57.3504
1631013774096910;58.09856
1631013774112540;59.81705
1631013774128160;61.47372
1631013774143790;62.35625
1631013774159410;62.23482
1631013774175040;61.34312
1631013774190660;60.07797
1631013774206290;58.66443
1631013774221920;56.96568
1631013774237540;54.5324
1631013774253170;50.81831
1631013774268790;45.46511
1631013774284420;38.52204
1631013774300050;30.45657
1631013774315670;22.05354
1631013774331300;14.12465
1631013774346920;7.190399
1631013774362550;1.253014
1631013774378170;-4.163773
1631013774393800;-9.84745
1631013774409430;-16.53214
1631013774425050;-24.52106
1631013774440680;-33.58597
1631013774456300;-43.00294
1631013774471930;-51.88077
1631013774487550;-59.54972
1631013774503180;-65.88374
1631013774518810;-71.32352
1631013774534430;-76.77357
1631013774550060;-83.3403
1631013774565680;-92.02991
1631013774581310;-103.5197
1631013774596930;-117.8532
1631013774612560;-134.1795
1631013774628190;-150.5193
1631013774643810;-163.9081
1631013774659440;-170.8932
1631013774675060;-168.5031
1631013774690690;-155.2527
1631013774706310;-131.7694
1631013774721940;-100.7798
1631013774737570;-66.30742
1631013774753190;-32.50629
1631013774768820;-2.543301
1631013774784440;21.97081
1631013774800070;40.88765
1631013774815690;55.00699
1631013774831320;65.38483
1631013774846950;72.92923
1631013774862570;78.20308
1631013774878200;81.59724
1631013774893820;83.53832
1631013774909450;84.58958
1631013774925070;85.43632
1631013774940700;86.66994
1631013774956330;88.54122
1631013774971950;90.87171
1631013774987580;93.16516
1631013775003200;94.85378
1631013775018830;95.57745
1631013775034450;95.34767
1631013775050080;94.42039
1631013775065710;93.06673
1631013775081330;91.28772
1631013775096960;88.73553
1631013775112580;84.81321
1631013775128210;78.99117
1631013775143830;71.04938
1631013775159460;61.26623
1631013775175090;50.28016
1631013775190710;38.87923
1631013775206340;27.72576
1631013775221960;17.21347
1631013775237590;7.478714
1631013775253210;-1.503725
1631013775268840;-9.807102
1631013775284470;-17.52401
1631013775300090;-24.86082
1631013775315720;-32.15705
1631013775331340;-39.91444
1631013775346970;-48.54428
1631013775362590;-58.14757
1631013775378220;-68.31375
1631013775393850;-78.15431
1631013775409470;-86.67371
1631013775425100;-93.18735
1631013775440720;-97.72005
1631013775456350;-101.0686
1631013775471970;-104.5816
1631013775487600;-109.7243
1631013775503230;-117.6028
